SpectraSuite Data File
++++++++++++++++++++++++++++++++++++
Date: Fri Feb 17 17:51:23 PST 2017
User: admin
Dark Spectrum Present: No
Reference Spectrum Present: No
Number of Sampled Component Spectra: 1
Spectrometers: USB2G8485
Integration Time (usec): 100000 (USB2G8485)
Spectra Averaged: 1 (USB2G8485)
Boxcar Smoothing: 1 (USB2G8485)
Correct for Electrical Dark: No (USB2G8485)
Strobe/Lamp Enabled: No (USB2G8485)
Correct for Detector Non-linearity: No (USB2G8485)
Correct for Stray Light: No (USB2G8485)
Number of Pixels in Processed Spectrum: 2048
>>>>>Begin Processed Spectral Data<<<<<
0.00	0.00
1.00	77.00
2.00	116.33
3.00	118.33
4.00	120.33
5.00	122.33
6.00	123.67
7.00	125.67
8.00	127.33
9.00	128.67
10.00	129.33
11.00	130.67
12.00	131.00
13.00	130.33
14.00	129.00
15.00	128.00
16.00	127.33
17.00	126.67
18.00	128.33
19.00	130.00
20.00	131.67
21.00	131.00
22.00	130.33
23.00	129.67
24.00	129.67
25.00	131.00
26.00	134.67
27.00	137.67
28.00	139.00
29.00	138.00
30.00	136.67
31.00	135.33
32.00	132.67
33.00	132.00
34.00	133.00
35.00	135.00
36.00	136.00
37.00	136.67
38.00	136.00
39.00	136.67
40.00	137.67
41.00	139.67
42.00	141.33
43.00	142.33
44.00	141.67
45.00	139.33
46.00	137.67
47.00	138.33
48.00	140.33
49.00	141.33
50.00	141.00
51.00	140.00
52.00	140.33
53.00	141.00
54.00	141.33
55.00	140.67
56.00	141.67
57.00	142.67
58.00	143.67
59.00	143.33
60.00	144.00
61.00	144.67
62.00	145.67
63.00	147.33
64.00	148.33
65.00	147.33
66.00	145.00
67.00	144.67
68.00	146.67
69.00	149.67
70.00	151.00
71.00	152.00
72.00	154.00
73.00	155.67
74.00	156.33
75.00	157.00
76.00	157.67
77.00	161.33
78.00	162.33
79.00	163.67
80.00	161.00
81.00	159.00
82.00	157.67
83.00	159.33
84.00	160.67
85.00	162.00
86.00	161.67
87.00	161.67
88.00	161.33
89.00	163.33
90.00	165.67
91.00	169.33
92.00	172.00
93.00	172.00
94.00	174.33
95.00	172.00
96.00	172.67
97.00	169.33
98.00	171.33
99.00	172.33
100.00	174.33
101.00	176.33
102.00	179.33
103.00	180.00
104.00	179.33
105.00	179.00
106.00	182.33
107.00	189.67
108.00	193.00
109.00	197.00
110.00	195.00
111.00	195.33
112.00	193.67
113.00	191.67
114.00	192.67
115.00	192.00
116.00	193.00
117.00	193.33
118.00	194.67
119.00	198.33
120.00	200.67
121.00	205.00
122.00	207.33
123.00	214.67
124.00	222.33
125.00	233.33
126.00	239.00
127.00	238.67
128.00	235.67
129.00	230.00
130.00	226.67
131.00	224.33
132.00	225.00
133.00	226.33
134.00	227.33
135.00	223.33
136.00	223.00
137.00	220.67
138.00	224.00
139.00	223.67
140.00	226.67
141.00	227.67
142.00	229.00
143.00	228.67
144.00	232.67
145.00	232.67
146.00	232.33
147.00	233.00
148.00	238.00
149.00	241.00
150.00	240.67
151.00	242.33
152.00	246.67
153.00	253.33
154.00	258.00
155.00	260.00
156.00	259.00
157.00	260.00
158.00	267.33
159.00	280.67
160.00	288.33
161.00	288.67
162.00	284.33
163.00	280.00
164.00	274.33
165.00	266.67
166.00	265.33
167.00	265.33
168.00	269.67
169.00	273.00
170.00	275.00
171.00	274.33
172.00	272.67
173.00	279.00
174.00	285.67
175.00	290.33
176.00	290.67
177.00	302.33
178.00	328.33
179.00	366.33
180.00	390.33
181.00	393.67
182.00	372.00
183.00	345.67
184.00	325.00
185.00	316.33
186.00	310.00
187.00	307.00
188.00	306.00
189.00	310.00
190.00	309.00
191.00	302.00
192.00	293.00
193.00	284.67
194.00	279.33
195.00	276.67
196.00	279.67
197.00	288.00
198.00	289.33
199.00	292.33
200.00	288.67
201.00	292.33
202.00	291.67
203.00	302.67
204.00	315.33
205.00	328.00
206.00	335.33
207.00	358.67
208.00	393.00
209.00	427.00
210.00	429.67
211.00	404.67
212.00	363.33
213.00	338.33
214.00	335.67
215.00	361.00
216.00	396.67
217.00	430.00
218.00	439.00
219.00	419.67
220.00	386.00
221.00	358.33
222.00	338.33
223.00	322.67
224.00	309.67
225.00	300.67
226.00	294.33
227.00	294.00
228.00	291.00
229.00	297.00
230.00	299.00
231.00	302.67
232.00	299.67
233.00	296.00
234.00	295.33
235.00	295.00
236.00	295.33
237.00	297.33
238.00	299.67
239.00	308.00
240.00	312.67
241.00	318.67
242.00	320.00
243.00	325.33
244.00	329.33
245.00	329.33
246.00	322.00
247.00	314.00
248.00	309.67
249.00	308.67
250.00	319.67
251.00	358.00
252.00	431.00
253.00	503.00
254.00	509.00
255.00	449.33
256.00	368.67
257.00	320.67
258.00	306.00
259.00	306.00
260.00	310.33
261.00	315.00
262.00	314.67
263.00	322.67
264.00	326.00
265.00	334.33
266.00	338.67
267.00	344.33
268.00	346.33
269.00	345.67
270.00	351.00
271.00	366.33
272.00	399.00
273.00	432.67
274.00	452.33
275.00	445.00
276.00	415.00
277.00	388.67
278.00	363.33
279.00	362.00
280.00	367.67
281.00	393.33
282.00	423.33
283.00	450.00
284.00	463.33
285.00	460.67
286.00	450.67
287.00	428.00
288.00	406.33
289.00	384.67
290.00	382.00
291.00	392.00
292.00	414.67
293.00	442.00
294.00	458.67
295.00	470.00
296.00	461.00
297.00	443.33
298.00	421.00
299.00	406.67
300.00	403.33
301.00	406.33
302.00	411.67
303.00	416.33
304.00	421.33
305.00	427.00
306.00	428.67
307.00	416.00
308.00	408.00
309.00	408.33
310.00	429.67
311.00	442.67
312.00	458.00
313.00	473.33
314.00	505.67
315.00	550.33
316.00	605.00
317.00	651.67
318.00	656.67
319.00	592.33
320.00	490.00
321.00	397.33
322.00	351.67
323.00	334.00
324.00	331.33
325.00	334.00
326.00	347.00
327.00	367.33
328.00	401.00
329.00	458.33
330.00	578.33
331.00	749.00
332.00	888.00
333.00	871.00
334.00	707.33
335.00	517.67
336.00	408.67
337.00	392.67
338.00	403.33
339.00	426.00
340.00	446.00
341.00	466.00
342.00	471.00
343.00	465.33
344.00	466.33
345.00	485.00
346.00	500.67
347.00	487.67
348.00	444.67
349.00	390.33
350.00	354.00
351.00	341.33
352.00	347.33
353.00	371.67
354.00	406.00
355.00	454.00
356.00	482.33
357.00	474.33
358.00	432.67
359.00	385.33
360.00	358.67
361.00	349.67
362.00	354.67
363.00	352.00
364.00	341.33
365.00	332.00
366.00	335.67
367.00	344.00
368.00	348.67
369.00	351.33
370.00	360.33
371.00	379.67
372.00	401.33
373.00	415.33
374.00	421.33
375.00	430.33
376.00	443.33
377.00	446.00
378.00	426.00
379.00	395.33
380.00	374.00
381.00	367.67
382.00	369.33
383.00	368.00
384.00	372.67
385.00	382.67
386.00	397.67
387.00	409.67
388.00	425.67
389.00	446.00
390.00	472.67
391.00	548.67
392.00	862.00
393.00	1530.00
394.00	2251.67
395.00	2486.00
396.00	2042.00
397.00	1371.00
398.00	869.33
399.00	638.33
400.00	503.00
401.00	435.33
402.00	404.00
403.00	387.00
404.00	372.00
405.00	370.00
406.00	380.67
407.00	390.33
408.00	392.00
409.00	386.67
410.00	412.00
411.00	496.33
412.00	660.67
413.00	848.67
414.00	947.00
415.00	900.67
416.00	727.00
417.00	554.00
418.00	436.00
419.00	402.67
420.00	403.67
421.00	410.33
422.00	413.33
423.00	435.33
424.00	468.00
425.00	496.33
426.00	488.00
427.00	449.00
428.00	396.33
429.00	356.67
430.00	342.00
431.00	350.33
432.00	372.33
433.00	407.33
434.00	469.33
435.00	548.67
436.00	605.33
437.00	594.00
438.00	519.33
439.00	436.33
440.00	383.33
441.00	364.67
442.00	358.67
443.00	358.67
444.00	356.00
445.00	357.00
446.00	364.33
447.00	375.33
448.00	388.67
449.00	397.00
450.00	415.33
451.00	427.00
452.00	433.33
453.00	435.67
454.00	449.67
455.00	455.67
456.00	433.67
457.00	386.33
458.00	340.67
459.00	320.33
460.00	318.67
461.00	331.33
462.00	343.33
463.00	356.33
464.00	354.33
465.00	340.33
466.00	316.67
467.00	294.67
468.00	284.67
469.00	281.33
470.00	286.00
471.00	292.33
472.00	299.67
473.00	305.00
474.00	306.00
475.00	305.67
476.00	304.67
477.00	303.00
478.00	310.00
479.00	318.67
480.00	328.33
481.00	330.00
482.00	323.33
483.00	315.00
484.00	312.33
485.00	322.00
486.00	336.33
487.00	340.00
488.00	330.00
489.00	308.33
490.00	294.67
491.00	288.67
492.00	294.67
493.00	309.00
494.00	326.67
495.00	336.33
496.00	324.67
497.00	302.00
498.00	286.67
499.00	279.33
500.00	279.33
501.00	283.33
502.00	298.00
503.00	330.00
504.00	366.33
505.00	400.33
506.00	412.67
507.00	398.33
508.00	368.00
509.00	335.00
510.00	315.00
511.00	310.33
512.00	310.00
513.00	309.67
514.00	316.00
515.00	329.00
516.00	339.33
517.00	326.00
518.00	310.00
519.00	302.67
520.00	302.33
521.00	301.00
522.00	292.00
523.00	296.33
524.00	304.00
525.00	314.00
526.00	311.00
527.00	299.33
528.00	288.00
529.00	284.00
530.00	290.67
531.00	296.00
532.00	302.67
533.00	304.00
534.00	311.33
535.00	314.67
536.00	307.33
537.00	304.00
538.00	316.33
539.00	343.00
540.00	361.33
541.00	357.33
542.00	350.33
543.00	343.33
544.00	335.67
545.00	323.67
546.00	322.33
547.00	343.67
548.00	383.00
549.00	408.67
550.00	412.33
551.00	391.67
552.00	361.00
553.00	327.67
554.00	293.67
555.00	278.33
556.00	265.67
557.00	270.33
558.00	274.33
559.00	287.00
560.00	288.33
561.00	283.33
562.00	276.67
563.00	276.67
564.00	282.33
565.00	284.00
566.00	281.00
567.00	273.67
568.00	275.33
569.00	291.33
570.00	309.00
571.00	320.00
572.00	315.33
573.00	302.67
574.00	285.33
575.00	274.67
576.00	272.00
577.00	273.33
578.00	274.67
579.00	285.67
580.00	311.33
581.00	341.00
582.00	350.00
583.00	343.67
584.00	326.00
585.00	314.67
586.00	301.33
587.00	288.33
588.00	278.67
589.00	268.67
590.00	261.33
591.00	253.00
592.00	253.00
593.00	250.33
594.00	248.67
595.00	241.33
596.00	249.67
597.00	270.00
598.00	295.67
599.00	303.67
600.00	304.00
601.00	298.33
602.00	300.00
603.00	290.33
604.00	286.67
605.00	285.00
606.00	290.67
607.00	300.00
608.00	305.00
609.00	303.00
610.00	290.33
611.00	277.67
612.00	274.33
613.00	284.33
614.00	309.33
615.00	328.67
616.00	330.67
617.00	316.67
618.00	304.33
619.00	295.67
620.00	300.00
621.00	329.33
622.00	383.33
623.00	429.33
624.00	444.67
625.00	434.00
626.00	422.67
627.00	405.00
628.00	388.67
629.00	372.67
630.00	365.67
631.00	349.33
632.00	339.67
633.00	361.00
634.00	428.67
635.00	511.33
636.00	570.00
637.00	575.67
638.00	520.67
639.00	433.00
640.00	363.00
641.00	348.33
642.00	392.67
643.00	443.00
644.00	462.00
645.00	458.00
646.00	458.33
647.00	491.33
648.00	525.00
649.00	564.00
650.00	594.00
651.00	613.00
652.00	594.00
653.00	553.67
654.00	509.67
655.00	502.00
656.00	551.00
657.00	661.33
658.00	783.00
659.00	837.00
660.00	792.00
661.00	681.00
662.00	582.00
663.00	554.00
664.00	594.00
665.00	608.67
666.00	562.67
667.00	477.00
668.00	426.00
669.00	404.33
670.00	392.00
671.00	390.33
672.00	416.00
673.00	473.33
674.00	528.67
675.00	562.00
676.00	575.33
677.00	661.00
678.00	910.33
679.00	1281.00
680.00	1590.33
681.00	1605.00
682.00	1356.67
683.00	985.33
684.00	701.67
685.00	547.00
686.00	509.00
687.00	523.67
688.00	550.67
689.00	565.33
690.00	590.00
691.00	628.33
692.00	680.67
693.00	716.00
694.00	721.67
695.00	696.33
696.00	655.33
697.00	610.00
698.00	565.67
699.00	536.67
700.00	529.33
701.00	557.67
702.00	624.67
703.00	706.00
704.00	760.67
705.00	739.33
706.00	663.00
707.00	587.33
708.00	542.67
709.00	520.33
710.00	484.33
711.00	451.00
712.00	425.00
713.00	418.67
714.00	440.00
715.00	535.33
716.00	681.67
717.00	815.00
718.00	888.67
719.00	917.67
720.00	884.00
721.00	769.33
722.00	609.33
723.00	500.67
724.00	459.00
725.00	449.33
726.00	440.67
727.00	426.67
728.00	440.67
729.00	502.67
730.00	582.67
731.00	632.00
732.00	625.00
733.00	616.33
734.00	613.67
735.00	602.67
736.00	587.33
737.00	587.33
738.00	594.00
739.00	556.00
740.00	463.33
741.00	364.67
742.00	302.33
743.00	304.00
744.00	376.33
745.00	494.67
746.00	605.00
747.00	648.33
748.00	665.67
749.00	669.33
750.00	654.67
751.00	578.00
752.00	483.33
753.00	408.33
754.00	382.67
755.00	384.33
756.00	400.33
757.00	414.33
758.00	416.00
759.00	420.00
760.00	431.67
761.00	441.67
762.00	435.33
763.00	406.67
764.00	362.00
765.00	333.67
766.00	361.33
767.00	443.00
768.00	499.33
769.00	469.67
770.00	371.33
771.00	284.67
772.00	248.00
773.00	288.67
774.00	382.33
775.00	485.00
776.00	529.33
777.00	527.33
778.00	504.33
779.00	477.67
780.00	424.33
781.00	353.67
782.00	293.33
783.00	250.67
784.00	231.00
785.00	222.67
786.00	232.67
787.00	252.33
788.00	283.33
789.00	313.33
790.00	324.67
791.00	320.00
792.00	305.67
793.00	291.00
794.00	281.33
795.00	287.00
796.00	316.67
797.00	333.67
798.00	310.00
799.00	263.00
800.00	226.00
801.00	220.67
802.00	243.67
803.00	298.00
804.00	371.00
805.00	412.33
806.00	404.33
807.00	358.33
808.00	317.33
809.00	286.67
810.00	261.00
811.00	235.67
812.00	217.00
813.00	218.67
814.00	230.33
815.00	246.67
816.00	246.00
817.00	242.67
818.00	237.67
819.00	243.33
820.00	243.00
821.00	236.67
822.00	223.67
823.00	223.00
824.00	233.67
825.00	246.00
826.00	245.00
827.00	228.67
828.00	210.33
829.00	197.00
830.00	191.00
831.00	193.33
832.00	208.33
833.00	235.33
834.00	259.33
835.00	265.33
836.00	258.00
837.00	241.33
838.00	225.67
839.00	210.00
840.00	199.00
841.00	192.67
842.00	189.00
843.00	186.00
844.00	185.00
845.00	187.67
846.00	190.67
847.00	191.00
848.00	187.00
849.00	180.33
850.00	176.00
851.00	172.67
852.00	174.33
853.00	176.67
854.00	177.67
855.00	175.33
856.00	172.00
857.00	175.00
858.00	181.33
859.00	192.00
860.00	203.00
861.00	218.67
862.00	230.33
863.00	229.33
864.00	218.33
865.00	208.00
866.00	205.67
867.00	207.00
868.00	226.00
869.00	495.67
870.00	1791.33
871.00	3068.67
872.00	4095.00
873.00	4095.00
874.00	4095.00
875.00	3621.33
876.00	2805.33
877.00	1809.67
878.00	1152.00
879.00	736.00
880.00	460.00
881.00	299.00
882.00	234.00
883.00	201.33
884.00	185.33
885.00	171.67
886.00	165.67
887.00	166.00
888.00	172.33
889.00	182.00
890.00	187.67
891.00	187.67
892.00	183.67
893.00	180.00
894.00	175.67
895.00	173.33
896.00	168.33
897.00	166.33
898.00	160.00
899.00	157.33
900.00	154.00
901.00	154.33
902.00	155.33
903.00	156.00
904.00	157.33
905.00	158.33
906.00	160.00
907.00	159.67
908.00	160.33
909.00	163.67
910.00	174.00
911.00	188.67
912.00	195.33
913.00	191.67
914.00	181.67
915.00	177.67
916.00	178.67
917.00	177.67
918.00	174.67
919.00	169.00
920.00	165.33
921.00	163.67
922.00	161.67
923.00	159.33
924.00	159.00
925.00	159.33
926.00	161.67
927.00	164.33
928.00	167.67
929.00	170.00
930.00	167.67
931.00	162.67
932.00	159.33
933.00	157.67
934.00	157.67
935.00	156.00
936.00	155.33
937.00	155.00
938.00	155.33
939.00	156.00
940.00	159.67
941.00	163.67
942.00	168.67
943.00	172.33
944.00	174.00
945.00	177.00
946.00	179.67
947.00	184.67
948.00	184.00
949.00	182.33
950.00	175.67
951.00	171.67
952.00	169.33
953.00	172.67
954.00	173.33
955.00	170.67
956.00	167.00
957.00	163.67
958.00	161.67
959.00	158.33
960.00	155.00
961.00	154.67
962.00	157.67
963.00	163.33
964.00	165.33
965.00	164.33
966.00	161.00
967.00	161.00
968.00	160.33
969.00	162.33
970.00	164.00
971.00	168.67
972.00	169.33
973.00	169.67
974.00	169.00
975.00	168.00
976.00	165.67
977.00	160.33
978.00	156.33
979.00	152.33
980.00	151.00
981.00	155.33
982.00	160.67
983.00	164.33
984.00	162.00
985.00	159.33
986.00	159.00
987.00	161.33
988.00	162.33
989.00	163.00
990.00	160.00
991.00	157.00
992.00	154.33
993.00	155.33
994.00	157.00
995.00	157.33
996.00	157.67
997.00	157.00
998.00	157.00
999.00	158.67
1000.00	159.67
1001.00	159.33
1002.00	157.67
1003.00	158.33
1004.00	159.00
1005.00	157.33
1006.00	157.33
1007.00	158.00
1008.00	161.33
1009.00	164.33
1010.00	170.33
1011.00	175.33
1012.00	176.00
1013.00	175.33
1014.00	176.67
1015.00	175.67
1016.00	170.67
1017.00	163.67
1018.00	159.67
1019.00	158.67
1020.00	158.00
1021.00	155.67
1022.00	150.67
1023.00	146.67
1024.00	146.00
1025.00	148.33
1026.00	152.00
1027.00	158.00
1028.00	163.00
1029.00	166.00
1030.00	167.67
1031.00	171.33
1032.00	176.67
1033.00	179.67
1034.00	177.67
1035.00	171.00
1036.00	164.67
1037.00	160.67
1038.00	157.33
1039.00	157.00
1040.00	157.67
1041.00	160.00
1042.00	161.33
1043.00	161.67
1044.00	161.33
1045.00	161.67
1046.00	164.33
1047.00	165.67
1048.00	167.67
1049.00	173.00
1050.00	182.67
1051.00	191.67
1052.00	199.00
1053.00	210.00
1054.00	215.67
1055.00	213.33
1056.00	202.00
1057.00	197.67
1058.00	198.33
1059.00	200.33
1060.00	198.00
1061.00	194.33
1062.00	190.00
1063.00	186.00
1064.00	180.00
1065.00	180.33
1066.00	190.00
1067.00	205.00
1068.00	214.00
1069.00	212.67
1070.00	216.33
1071.00	223.00
1072.00	232.67
1073.00	239.33
1074.00	248.67
1075.00	258.67
1076.00	263.33
1077.00	266.00
1078.00	269.33
1079.00	279.00
1080.00	280.00
1081.00	269.33
1082.00	241.67
1083.00	225.33
1084.00	225.67
1085.00	241.33
1086.00	257.67
1087.00	264.67
1088.00	265.00
1089.00	257.67
1090.00	258.00
1091.00	267.33
1092.00	274.33
1093.00	272.67
1094.00	259.00
1095.00	246.33
1096.00	237.00
1097.00	232.67
1098.00	225.33
1099.00	209.67
1100.00	191.00
1101.00	179.00
1102.00	185.67
1103.00	216.00
1104.00	254.00
1105.00	276.00
1106.00	269.33
1107.00	252.67
1108.00	236.67
1109.00	229.67
1110.00	223.67
1111.00	216.00
1112.00	204.67
1113.00	190.67
1114.00	178.67
1115.00	171.33
1116.00	175.00
1117.00	191.33
1118.00	206.00
1119.00	207.33
1120.00	197.00
1121.00	184.00
1122.00	175.00
1123.00	171.00
1124.00	170.33
1125.00	171.00
1126.00	169.67
1127.00	171.33
1128.00	176.67
1129.00	183.67
1130.00	185.00
1131.00	189.00
1132.00	203.00
1133.00	226.67
1134.00	248.33
1135.00	246.33
1136.00	240.67
1137.00	233.00
1138.00	234.67
1139.00	230.33
1140.00	227.33
1141.00	226.00
1142.00	221.67
1143.00	211.33
1144.00	204.67
1145.00	200.67
1146.00	199.67
1147.00	194.33
1148.00	191.67
1149.00	191.00
1150.00	196.00
1151.00	202.33
1152.00	204.33
1153.00	202.00
1154.00	204.33
1155.00	221.67
1156.00	241.33
1157.00	255.33
1158.00	252.00
1159.00	250.00
1160.00	255.00
1161.00	260.67
1162.00	257.00
1163.00	238.33
1164.00	217.33
1165.00	202.00
1166.00	196.00
1167.00	197.67
1168.00	198.33
1169.00	194.00
1170.00	191.67
1171.00	194.33
1172.00	202.67
1173.00	208.00
1174.00	208.00
1175.00	204.33
1176.00	203.00
1177.00	216.67
1178.00	240.67
1179.00	265.00
1180.00	274.67
1181.00	263.67
1182.00	242.00
1183.00	215.67
1184.00	199.67
1185.00	190.33
1186.00	186.00
1187.00	181.00
1188.00	173.67
1189.00	166.33
1190.00	162.33
1191.00	162.33
1192.00	170.67
1193.00	186.33
1194.00	206.67
1195.00	216.67
1196.00	221.33
1197.00	219.67
1198.00	219.00
1199.00	209.67
1200.00	199.33
1201.00	192.33
1202.00	188.33
1203.00	188.33
1204.00	190.33
1205.00	201.67
1206.00	212.33
1207.00	219.00
1208.00	213.00
1209.00	204.00
1210.00	196.33
1211.00	191.33
1212.00	185.67
1213.00	177.00
1214.00	175.00
1215.00	178.33
1216.00	184.33
1217.00	185.00
1218.00	182.67
1219.00	178.67
1220.00	176.67
1221.00	171.67
1222.00	167.33
1223.00	162.00
1224.00	159.67
1225.00	158.67
1226.00	160.00
1227.00	160.67
1228.00	160.00
1229.00	156.00
1230.00	154.00
1231.00	155.67
1232.00	158.00
1233.00	160.33
1234.00	158.67
1235.00	161.00
1236.00	166.67
1237.00	174.67
1238.00	177.00
1239.00	175.67
1240.00	177.33
1241.00	182.67
1242.00	188.33
1243.00	190.67
1244.00	189.00
1245.00	180.67
1246.00	168.33
1247.00	157.67
1248.00	154.00
1249.00	154.00
1250.00	156.00
1251.00	155.00
1252.00	151.67
1253.00	147.33
1254.00	144.33
1255.00	143.67
1256.00	143.00
1257.00	143.33
1258.00	145.00
1259.00	146.67
1260.00	146.00
1261.00	143.33
1262.00	141.33
1263.00	142.00
1264.00	142.67
1265.00	144.00
1266.00	145.00
1267.00	145.33
1268.00	146.67
1269.00	149.67
1270.00	160.33
1271.00	170.33
1272.00	175.33
1273.00	171.00
1274.00	162.33
1275.00	155.67
1276.00	153.33
1277.00	155.67
1278.00	160.33
1279.00	161.33
1280.00	160.33
1281.00	160.67
1282.00	161.00
1283.00	162.00
1284.00	160.67
1285.00	160.67
1286.00	159.67
1287.00	159.00
1288.00	157.33
1289.00	158.00
1290.00	159.67
1291.00	164.67
1292.00	168.33
1293.00	166.33
1294.00	159.67
1295.00	155.67
1296.00	158.00
1297.00	165.33
1298.00	169.33
1299.00	167.67
1300.00	164.33
1301.00	160.00
1302.00	156.00
1303.00	151.67
1304.00	150.33
1305.00	152.00
1306.00	156.00
1307.00	159.67
1308.00	161.00
1309.00	157.67
1310.00	153.00
1311.00	151.33
1312.00	151.00
1313.00	153.33
1314.00	153.33
1315.00	154.33
1316.00	151.00
1317.00	150.67
1318.00	152.00
1319.00	154.33
1320.00	152.67
1321.00	148.67
1322.00	145.67
1323.00	144.00
1324.00	143.67
1325.00	143.33
1326.00	144.33
1327.00	143.67
1328.00	144.33
1329.00	147.33
1330.00	153.33
1331.00	159.33
1332.00	161.00
1333.00	158.33
1334.00	153.67
1335.00	150.00
1336.00	146.00
1337.00	144.33
1338.00	144.00
1339.00	146.67
1340.00	148.67
1341.00	152.33
1342.00	154.00
1343.00	152.33
1344.00	150.00
1345.00	147.67
1346.00	146.00
1347.00	142.33
1348.00	140.00
1349.00	139.00
1350.00	139.67
1351.00	140.67
1352.00	143.33
1353.00	146.67
1354.00	147.67
1355.00	145.67
1356.00	141.00
1357.00	139.00
1358.00	140.67
1359.00	143.00
1360.00	144.67
1361.00	145.33
1362.00	145.67
1363.00	146.00
1364.00	145.00
1365.00	143.67
1366.00	142.00
1367.00	140.67
1368.00	140.00
1369.00	140.67
1370.00	142.00
1371.00	144.00
1372.00	145.00
1373.00	145.00
1374.00	144.00
1375.00	145.67
1376.00	149.00
1377.00	151.67
1378.00	151.00
1379.00	147.33
1380.00	143.67
1381.00	142.00
1382.00	143.00
1383.00	145.33
1384.00	148.67
1385.00	152.67
1386.00	156.67
1387.00	157.00
1388.00	154.00
1389.00	149.33
1390.00	146.33
1391.00	143.67
1392.00	141.00
1393.00	138.00
1394.00	138.33
1395.00	139.33
1396.00	140.33
1397.00	138.67
1398.00	137.33
1399.00	137.33
1400.00	141.00
1401.00	143.33
1402.00	143.67
1403.00	141.67
1404.00	141.67
1405.00	143.00
1406.00	144.00
1407.00	145.33
1408.00	147.00
1409.00	152.67
1410.00	160.67
1411.00	168.67
1412.00	168.33
1413.00	164.00
1414.00	156.67
1415.00	153.33
1416.00	152.00
1417.00	151.67
1418.00	150.67
1419.00	149.00
1420.00	148.00
1421.00	145.67
1422.00	142.33
1423.00	142.00
1424.00	144.67
1425.00	146.33
1426.00	144.67
1427.00	140.33
1428.00	138.67
1429.00	137.33
1430.00	136.67
1431.00	137.33
1432.00	138.00
1433.00	138.33
1434.00	136.67
1435.00	135.67
1436.00	136.33
1437.00	135.67
1438.00	136.00
1439.00	136.00
1440.00	137.33
1441.00	138.33
1442.00	139.00
1443.00	138.67
1444.00	137.33
1445.00	135.67
1446.00	135.33
1447.00	135.67
1448.00	137.67
1449.00	139.00
1450.00	139.00
1451.00	137.33
1452.00	136.33
1453.00	136.67
1454.00	137.67
1455.00	138.00
1456.00	137.33
1457.00	135.67
1458.00	133.67
1459.00	133.33
1460.00	135.00
1461.00	138.00
1462.00	141.67
1463.00	146.67
1464.00	152.67
1465.00	159.00
1466.00	161.00
1467.00	159.33
1468.00	153.67
1469.00	150.00
1470.00	148.33
1471.00	150.00
1472.00	155.67
1473.00	162.00
1474.00	163.33
1475.00	156.33
1476.00	147.67
1477.00	141.33
1478.00	139.33
1479.00	138.00
1480.00	138.33
1481.00	139.00
1482.00	139.33
1483.00	140.67
1484.00	141.00
1485.00	141.33
1486.00	140.00
1487.00	140.33
1488.00	139.33
1489.00	139.33
1490.00	138.00
1491.00	137.33
1492.00	135.00
1493.00	133.67
1494.00	132.67
1495.00	132.33
1496.00	132.33
1497.00	133.00
1498.00	133.00
1499.00	132.67
1500.00	134.00
1501.00	136.00
1502.00	136.00
1503.00	135.00
1504.00	134.33
1505.00	135.33
1506.00	135.00
1507.00	135.67
1508.00	137.67
1509.00	141.00
1510.00	147.67
1511.00	153.00
1512.00	158.00
1513.00	157.33
1514.00	154.00
1515.00	148.00
1516.00	143.00
1517.00	140.00
1518.00	138.67
1519.00	137.67
1520.00	136.67
1521.00	136.00
1522.00	135.67
1523.00	134.67
1524.00	134.00
1525.00	134.00
1526.00	135.00
1527.00	136.33
1528.00	137.67
1529.00	139.67
1530.00	142.33
1531.00	144.00
1532.00	144.67
1533.00	143.33
1534.00	142.33
1535.00	143.67
1536.00	146.00
1537.00	148.00
1538.00	146.33
1539.00	143.67
1540.00	141.00
1541.00	139.67
1542.00	140.00
1543.00	141.00
1544.00	141.33
1545.00	141.00
1546.00	140.33
1547.00	139.33
1548.00	138.67
1549.00	139.33
1550.00	144.67
1551.00	153.67
1552.00	161.33
1553.00	165.00
1554.00	162.33
1555.00	157.67
1556.00	155.33
1557.00	153.67
1558.00	152.33
1559.00	146.00
1560.00	140.33
1561.00	137.00
1562.00	135.00
1563.00	134.33
1564.00	132.33
1565.00	132.33
1566.00	132.33
1567.00	134.00
1568.00	135.33
1569.00	136.33
1570.00	134.33
1571.00	132.67
1572.00	131.33
1573.00	131.33
1574.00	132.00
1575.00	132.67
1576.00	138.33
1577.00	147.33
1578.00	157.33
1579.00	165.33
1580.00	169.33
1581.00	171.00
1582.00	166.67
1583.00	163.33
1584.00	165.00
1585.00	175.33
1586.00	186.00
1587.00	188.67
1588.00	179.67
1589.00	166.00
1590.00	153.33
1591.00	145.67
1592.00	143.67
1593.00	142.33
1594.00	141.00
1595.00	137.67
1596.00	135.67
1597.00	135.33
1598.00	135.00
1599.00	136.00
1600.00	138.33
1601.00	140.00
1602.00	139.67
1603.00	137.33
1604.00	135.00
1605.00	134.33
1606.00	136.67
1607.00	139.67
1608.00	143.33
1609.00	142.00
1610.00	139.67
1611.00	136.00
1612.00	135.67
1613.00	136.00
1614.00	136.33
1615.00	135.33
1616.00	132.33
1617.00	130.33
1618.00	129.67
1619.00	131.67
1620.00	134.67
1621.00	136.33
1622.00	138.33
1623.00	140.67
1624.00	143.33
1625.00	147.00
1626.00	147.67
1627.00	146.67
1628.00	143.33
1629.00	141.00
1630.00	138.67
1631.00	136.67
1632.00	135.67
1633.00	136.00
1634.00	135.00
1635.00	134.00
1636.00	133.67
1637.00	134.67
1638.00	134.33
1639.00	134.00
1640.00	134.33
1641.00	135.67
1642.00	136.00
1643.00	135.33
1644.00	134.33
1645.00	135.33
1646.00	136.33
1647.00	137.67
1648.00	137.33
1649.00	138.00
1650.00	138.00
1651.00	137.67
1652.00	136.67
1653.00	136.00
1654.00	135.33
1655.00	134.33
1656.00	132.67
1657.00	133.67
1658.00	135.33
1659.00	136.67
1660.00	136.67
1661.00	137.67
1662.00	140.00
1663.00	140.67
1664.00	140.00
1665.00	137.67
1666.00	136.67
1667.00	135.33
1668.00	136.33
1669.00	138.67
1670.00	144.33
1671.00	149.00
1672.00	149.00
1673.00	144.00
1674.00	138.67
1675.00	136.33
1676.00	137.00
1677.00	139.00
1678.00	140.00
1679.00	141.00
1680.00	140.00
1681.00	138.33
1682.00	135.67
1683.00	133.33
1684.00	133.33
1685.00	133.67
1686.00	135.33
1687.00	136.67
1688.00	137.33
1689.00	136.67
1690.00	135.67
1691.00	135.67
1692.00	135.67
1693.00	134.67
1694.00	133.33
1695.00	131.67
1696.00	131.33
1697.00	132.33
1698.00	134.33
1699.00	136.00
1700.00	137.33
1701.00	138.67
1702.00	140.00
1703.00	139.67
1704.00	139.33
1705.00	137.33
1706.00	136.33
1707.00	135.00
1708.00	135.00
1709.00	133.00
1710.00	131.67
1711.00	132.33
1712.00	135.00
1713.00	136.33
1714.00	136.33
1715.00	136.00
1716.00	136.67
1717.00	136.33
1718.00	136.00
1719.00	135.33
1720.00	134.67
1721.00	134.00
1722.00	134.67
1723.00	134.67
1724.00	134.67
1725.00	134.00
1726.00	134.33
1727.00	134.67
1728.00	134.00
1729.00	134.33
1730.00	135.67
1731.00	136.33
1732.00	135.67
1733.00	133.67
1734.00	133.00
1735.00	134.00
1736.00	134.67
1737.00	134.00
1738.00	132.67
1739.00	131.33
1740.00	131.67
1741.00	132.00
1742.00	133.00
1743.00	132.67
1744.00	132.33
1745.00	132.33
1746.00	133.33
1747.00	134.67
1748.00	135.67
1749.00	136.00
1750.00	135.00
1751.00	135.00
1752.00	135.33
1753.00	135.67
1754.00	134.67
1755.00	134.33
1756.00	134.33
1757.00	133.33
1758.00	132.33
1759.00	131.67
1760.00	132.67
1761.00	133.33
1762.00	133.67
1763.00	133.00
1764.00	132.33
1765.00	131.67
1766.00	131.00
1767.00	131.00
1768.00	130.67
1769.00	130.33
1770.00	129.67
1771.00	130.33
1772.00	131.00
1773.00	131.67
1774.00	131.67
1775.00	132.33
1776.00	134.00
1777.00	135.67
1778.00	135.33
1779.00	133.67
1780.00	132.00
1781.00	131.67
1782.00	131.33
1783.00	130.67
1784.00	132.67
1785.00	133.00
1786.00	133.67
1787.00	133.33
1788.00	135.00
1789.00	135.67
1790.00	133.33
1791.00	131.00
1792.00	129.67
1793.00	131.33
1794.00	133.33
1795.00	134.67
1796.00	134.00
1797.00	133.00
1798.00	132.67
1799.00	134.33
1800.00	136.00
1801.00	138.00
1802.00	137.33
1803.00	135.33
1804.00	134.67
1805.00	134.67
1806.00	135.00
1807.00	133.00
1808.00	132.67
1809.00	132.00
1810.00	132.00
1811.00	131.33
1812.00	132.00
1813.00	133.00
1814.00	132.33
1815.00	131.33
1816.00	130.00
1817.00	130.67
1818.00	131.33
1819.00	131.67
1820.00	131.00
1821.00	130.33
1822.00	130.67
1823.00	130.67
1824.00	130.67
1825.00	131.00
1826.00	132.00
1827.00	132.33
1828.00	131.00
1829.00	131.67
1830.00	133.00
1831.00	135.33
1832.00	134.33
1833.00	132.67
1834.00	131.00
1835.00	130.67
1836.00	131.67
1837.00	132.00
1838.00	132.67
1839.00	132.00
1840.00	133.00
1841.00	133.00
1842.00	133.00
1843.00	131.67
1844.00	130.33
1845.00	129.67
1846.00	129.67
1847.00	130.33
1848.00	131.67
1849.00	131.67
1850.00	131.00
1851.00	131.00
1852.00	131.33
1853.00	132.00
1854.00	131.67
1855.00	131.67
1856.00	132.00
1857.00	132.67
1858.00	133.00
1859.00	133.33
1860.00	132.67
1861.00	133.67
1862.00	135.33
1863.00	135.67
1864.00	133.33
1865.00	131.33
1866.00	131.33
1867.00	133.67
1868.00	134.00
1869.00	133.67
1870.00	131.67
1871.00	131.33
1872.00	131.00
1873.00	130.33
1874.00	129.67
1875.00	129.00
1876.00	129.67
1877.00	130.67
1878.00	131.67
1879.00	131.67
1880.00	132.67
1881.00	134.00
1882.00	135.67
1883.00	135.33
1884.00	134.67
1885.00	134.33
1886.00	133.67
1887.00	132.67
1888.00	131.33
1889.00	130.67
1890.00	131.00
1891.00	130.67
1892.00	130.33
1893.00	129.00
1894.00	129.00
1895.00	128.67
1896.00	128.67
1897.00	129.33
1898.00	131.33
1899.00	133.00
1900.00	133.33
1901.00	132.33
1902.00	131.33
1903.00	130.67
1904.00	129.67
1905.00	128.00
1906.00	128.00
1907.00	130.67
1908.00	134.67
1909.00	136.00
1910.00	134.00
1911.00	131.67
1912.00	130.33
1913.00	130.33
1914.00	131.00
1915.00	132.67
1916.00	133.67
1917.00	134.33
1918.00	133.33
1919.00	132.00
1920.00	131.00
1921.00	130.33
1922.00	130.00
1923.00	131.00
1924.00	132.00
1925.00	132.67
1926.00	132.00
1927.00	132.33
1928.00	132.67
1929.00	132.33
1930.00	131.67
1931.00	132.00
1932.00	132.33
1933.00	132.33
1934.00	132.00
1935.00	131.33
1936.00	130.33
1937.00	130.00
1938.00	131.33
1939.00	133.00
1940.00	133.00
1941.00	131.67
1942.00	130.33
1943.00	130.00
1944.00	130.00
1945.00	130.00
1946.00	130.33
1947.00	131.67
1948.00	132.67
1949.00	133.00
1950.00	132.00
1951.00	131.67
1952.00	132.33
1953.00	132.67
1954.00	133.00
1955.00	132.33
1956.00	132.00
1957.00	131.33
1958.00	130.67
1959.00	129.67
1960.00	128.67
1961.00	128.67
1962.00	129.67
1963.00	131.00
1964.00	132.00
1965.00	131.67
1966.00	132.33
1967.00	133.00
1968.00	134.33
1969.00	134.33
1970.00	134.00
1971.00	133.33
1972.00	133.33
1973.00	133.33
1974.00	133.67
1975.00	133.00
1976.00	132.00
1977.00	132.00
1978.00	131.33
1979.00	131.00
1980.00	130.00
1981.00	129.33
1982.00	129.33
1983.00	128.67
1984.00	129.67
1985.00	129.67
1986.00	130.67
1987.00	130.33
1988.00	130.67
1989.00	130.33
1990.00	131.00
1991.00	131.67
1992.00	132.00
1993.00	131.33
1994.00	130.00
1995.00	130.00
1996.00	130.67
1997.00	132.33
1998.00	133.00
1999.00	133.67
2000.00	132.00
2001.00	130.67
2002.00	129.67
2003.00	130.00
2004.00	130.33
2005.00	130.67
2006.00	130.33
2007.00	128.67
2008.00	126.67
2009.00	126.67
2010.00	129.00
2011.00	132.33
2012.00	134.00
2013.00	134.00
2014.00	131.67
2015.00	130.00
2016.00	127.67
2017.00	127.67
2018.00	128.33
2019.00	130.67
2020.00	132.67
2021.00	133.67
2022.00	133.67
2023.00	132.33
2024.00	130.67
2025.00	130.00
2026.00	131.00
2027.00	132.67
2028.00	133.33
2029.00	132.33
2030.00	131.00
2031.00	131.00
2032.00	131.67
2033.00	132.00
2034.00	131.00
2035.00	130.33
2036.00	130.33
2037.00	130.67
2038.00	130.67
2039.00	132.00
2040.00	132.67
2041.00	133.00
2042.00	131.33
2043.00	130.67
2044.00	130.00
2045.00	129.33
2046.00	130.00
2047.00	132.00
>>>>>End Processed Spectral Data<<<<<
