SpectraSuite Data File
++++++++++++++++++++++++++++++++++++
Date: Wed Dec 31 16:17:21 PST 1969
User: admin
Dark Spectrum Present: No
Reference Spectrum Present: Yes
Number of Sampled Component Spectra: 1
Spectrometers: USB2G8485
Integration Time (usec): 500000 (USB2G8485)
Spectra Averaged: 1 (USB2G8485)
Boxcar Smoothing: 0 (USB2G8485)
Correct for Electrical Dark: No (USB2G8485)
Strobe/Lamp Enabled: No (USB2G8485)
Correct for Detector Non-linearity: No (USB2G8485)
Correct for Stray Light: No (USB2G8485)
Number of Pixels in Processed Spectrum: 2048
>>>>>Begin Processed Spectral Data<<<<<
0.00	0.00
1.00	152.00
2.00	155.00
3.00	158.00
4.00	153.00
5.00	165.00
6.00	165.00
7.00	162.00
8.00	168.00
9.00	162.00
10.00	160.00
11.00	161.00
12.00	162.00
13.00	168.00
14.00	165.00
15.00	167.00
16.00	168.00
17.00	169.00
18.00	171.00
19.00	164.00
20.00	165.00
21.00	165.00
22.00	164.00
23.00	163.00
24.00	160.00
25.00	164.00
26.00	166.00
27.00	188.00
28.00	172.00
29.00	168.00
30.00	168.00
31.00	166.00
32.00	164.00
33.00	167.00
34.00	170.00
35.00	164.00
36.00	167.00
37.00	163.00
38.00	163.00
39.00	167.00
40.00	170.00
41.00	166.00
42.00	163.00
43.00	166.00
44.00	168.00
45.00	164.00
46.00	167.00
47.00	166.00
48.00	169.00
49.00	164.00
50.00	165.00
51.00	166.00
52.00	163.00
53.00	169.00
54.00	169.00
55.00	182.00
56.00	179.00
57.00	166.00
58.00	167.00
59.00	166.00
60.00	168.00
61.00	166.00
62.00	164.00
63.00	168.00
64.00	175.00
65.00	166.00
66.00	163.00
67.00	164.00
68.00	170.00
69.00	167.00
70.00	169.00
71.00	173.00
72.00	167.00
73.00	169.00
74.00	167.00
75.00	166.00
76.00	166.00
77.00	169.00
78.00	171.00
79.00	173.00
80.00	169.00
81.00	169.00
82.00	166.00
83.00	168.00
84.00	164.00
85.00	163.00
86.00	168.00
87.00	167.00
88.00	170.00
89.00	172.00
90.00	178.00
91.00	169.00
92.00	168.00
93.00	166.00
94.00	162.00
95.00	187.00
96.00	169.00
97.00	172.00
98.00	166.00
99.00	167.00
100.00	165.00
101.00	168.00
102.00	165.00
103.00	171.00
104.00	170.00
105.00	169.00
106.00	162.00
107.00	172.00
108.00	180.00
109.00	173.00
110.00	168.00
111.00	170.00
112.00	170.00
113.00	170.00
114.00	170.00
115.00	166.00
116.00	166.00
117.00	166.00
118.00	169.00
119.00	166.00
120.00	175.00
121.00	171.00
122.00	168.00
123.00	171.00
124.00	169.00
125.00	167.00
126.00	161.00
127.00	169.00
128.00	172.00
129.00	167.00
130.00	168.00
131.00	166.00
132.00	166.00
133.00	170.00
134.00	169.00
135.00	166.00
136.00	163.00
137.00	163.00
138.00	164.00
139.00	165.00
140.00	166.00
141.00	172.00
142.00	169.00
143.00	165.00
144.00	166.00
145.00	168.00
146.00	170.00
147.00	172.00
148.00	170.00
149.00	172.00
150.00	171.00
151.00	167.00
152.00	178.00
153.00	170.00
154.00	181.00
155.00	172.00
156.00	168.00
157.00	169.00
158.00	168.00
159.00	167.00
160.00	165.00
161.00	169.00
162.00	169.00
163.00	173.00
164.00	171.00
165.00	170.00
166.00	167.00
167.00	172.00
168.00	176.00
169.00	168.00
170.00	168.00
171.00	170.00
172.00	187.00
173.00	209.00
174.00	243.00
175.00	251.00
176.00	218.00
177.00	190.00
178.00	172.00
179.00	170.00
180.00	173.00
181.00	173.00
182.00	175.00
183.00	175.00
184.00	179.00
185.00	172.00
186.00	169.00
187.00	170.00
188.00	169.00
189.00	170.00
190.00	167.00
191.00	168.00
192.00	171.00
193.00	170.00
194.00	176.00
195.00	176.00
196.00	174.00
197.00	169.00
198.00	182.00
199.00	174.00
200.00	172.00
201.00	178.00
202.00	174.00
203.00	173.00
204.00	185.00
205.00	175.00
206.00	172.00
207.00	172.00
208.00	177.00
209.00	177.00
210.00	175.00
211.00	177.00
212.00	176.00
213.00	182.00
214.00	185.00
215.00	176.00
216.00	176.00
217.00	176.00
218.00	181.00
219.00	184.00
220.00	181.00
221.00	195.00
222.00	183.00
223.00	182.00
224.00	181.00
225.00	181.00
226.00	179.00
227.00	180.00
228.00	187.00
229.00	186.00
230.00	197.00
231.00	185.00
232.00	182.00
233.00	187.00
234.00	185.00
235.00	184.00
236.00	188.00
237.00	188.00
238.00	193.00
239.00	195.00
240.00	206.00
241.00	195.00
242.00	190.00
243.00	197.00
244.00	200.00
245.00	194.00
246.00	211.00
247.00	201.00
248.00	195.00
249.00	199.00
250.00	216.00
251.00	210.00
252.00	209.00
253.00	218.00
254.00	228.00
255.00	323.00
256.00	649.00
257.00	1092.00
258.00	1324.00
259.00	1146.00
260.00	685.00
261.00	401.00
262.00	247.00
263.00	226.00
264.00	220.00
265.00	217.00
266.00	215.00
267.00	222.00
268.00	212.00
269.00	223.00
270.00	212.00
271.00	221.00
272.00	230.00
273.00	208.00
274.00	223.00
275.00	218.00
276.00	217.00
277.00	223.00
278.00	216.00
279.00	223.00
280.00	214.00
281.00	222.00
282.00	222.00
283.00	223.00
284.00	225.00
285.00	222.00
286.00	219.00
287.00	225.00
288.00	227.00
289.00	220.00
290.00	234.00
291.00	225.00
292.00	227.00
293.00	220.00
294.00	227.00
295.00	229.00
296.00	229.00
297.00	224.00
298.00	223.00
299.00	226.00
300.00	227.00
301.00	219.00
302.00	242.00
303.00	232.00
304.00	226.00
305.00	217.00
306.00	224.00
307.00	223.00
308.00	227.00
309.00	243.00
310.00	229.00
311.00	217.00
312.00	222.00
313.00	223.00
314.00	224.00
315.00	240.00
316.00	229.00
317.00	220.00
318.00	222.00
319.00	220.00
320.00	221.00
321.00	214.00
322.00	216.00
323.00	217.00
324.00	214.00
325.00	222.00
326.00	217.00
327.00	217.00
328.00	220.00
329.00	244.00
330.00	222.00
331.00	220.00
332.00	221.00
333.00	229.00
334.00	215.00
335.00	219.00
336.00	220.00
337.00	220.00
338.00	222.00
339.00	214.00
340.00	214.00
341.00	209.00
342.00	220.00
343.00	217.00
344.00	225.00
345.00	224.00
346.00	223.00
347.00	212.00
348.00	224.00
349.00	213.00
350.00	217.00
351.00	220.00
352.00	214.00
353.00	222.00
354.00	214.00
355.00	211.00
356.00	226.00
357.00	210.00
358.00	221.00
359.00	218.00
360.00	211.00
361.00	220.00
362.00	214.00
363.00	214.00
364.00	214.00
365.00	216.00
366.00	209.00
367.00	208.00
368.00	213.00
369.00	214.00
370.00	217.00
371.00	213.00
372.00	220.00
373.00	221.00
374.00	215.00
375.00	216.00
376.00	231.00
377.00	225.00
378.00	222.00
379.00	225.00
380.00	235.00
381.00	235.00
382.00	241.00
383.00	251.00
384.00	280.00
385.00	279.00
386.00	291.00
387.00	316.00
388.00	331.00
389.00	364.00
390.00	393.00
391.00	430.00
392.00	449.00
393.00	484.00
394.00	508.00
395.00	523.00
396.00	547.00
397.00	564.00
398.00	570.00
399.00	570.00
400.00	553.00
401.00	550.00
402.00	551.00
403.00	539.00
404.00	540.00
405.00	527.00
406.00	517.00
407.00	508.00
408.00	497.00
409.00	489.00
410.00	492.00
411.00	476.00
412.00	451.00
413.00	458.00
414.00	455.00
415.00	429.00
416.00	432.00
417.00	414.00
418.00	400.00
419.00	399.00
420.00	380.00
421.00	384.00
422.00	376.00
423.00	365.00
424.00	372.00
425.00	366.00
426.00	370.00
427.00	350.00
428.00	345.00
429.00	331.00
430.00	316.00
431.00	308.00
432.00	289.00
433.00	280.00
434.00	275.00
435.00	261.00
436.00	245.00
437.00	237.00
438.00	239.00
439.00	236.00
440.00	235.00
441.00	230.00
442.00	235.00
443.00	225.00
444.00	224.00
445.00	219.00
446.00	211.00
447.00	215.00
448.00	211.00
449.00	216.00
450.00	215.00
451.00	214.00
452.00	216.00
453.00	216.00
454.00	217.00
455.00	245.00
456.00	225.00
457.00	217.00
458.00	211.00
459.00	210.00
460.00	214.00
461.00	217.00
462.00	206.00
463.00	217.00
464.00	242.00
465.00	223.00
466.00	211.00
467.00	215.00
468.00	209.00
469.00	218.00
470.00	212.00
471.00	219.00
472.00	221.00
473.00	214.00
474.00	214.00
475.00	212.00
476.00	222.00
477.00	215.00
478.00	209.00
479.00	214.00
480.00	214.00
481.00	215.00
482.00	204.00
483.00	210.00
484.00	214.00
485.00	216.00
486.00	211.00
487.00	212.00
488.00	221.00
489.00	208.00
490.00	212.00
491.00	217.00
492.00	213.00
493.00	210.00
494.00	204.00
495.00	214.00
496.00	210.00
497.00	209.00
498.00	211.00
499.00	206.00
500.00	212.00
501.00	210.00
502.00	213.00
503.00	219.00
504.00	216.00
505.00	212.00
506.00	212.00
507.00	216.00
508.00	213.00
509.00	219.00
510.00	218.00
511.00	212.00
512.00	218.00
513.00	215.00
514.00	222.00
515.00	218.00
516.00	219.00
517.00	225.00
518.00	220.00
519.00	229.00
520.00	223.00
521.00	226.00
522.00	245.00
523.00	264.00
524.00	272.00
525.00	285.00
526.00	277.00
527.00	264.00
528.00	270.00
529.00	266.00
530.00	260.00
531.00	262.00
532.00	277.00
533.00	274.00
534.00	289.00
535.00	312.00
536.00	340.00
537.00	390.00
538.00	430.00
539.00	467.00
540.00	510.00
541.00	546.00
542.00	611.00
543.00	681.00
544.00	746.00
545.00	873.00
546.00	1054.00
547.00	1384.00
548.00	1761.00
549.00	2069.00
550.00	2295.00
551.00	2455.00
552.00	2547.00
553.00	2583.00
554.00	2557.00
555.00	2445.00
556.00	2323.00
557.00	2295.00
558.00	2518.00
559.00	2819.00
560.00	2814.00
561.00	2418.00
562.00	1888.00
563.00	1471.00
564.00	1188.00
565.00	975.00
566.00	876.00
567.00	852.00
568.00	888.00
569.00	862.00
570.00	852.00
571.00	801.00
572.00	781.00
573.00	725.00
574.00	702.00
575.00	692.00
576.00	693.00
577.00	694.00
578.00	682.00
579.00	630.00
580.00	604.00
581.00	557.00
582.00	494.00
583.00	447.00
584.00	412.00
585.00	372.00
586.00	344.00
587.00	319.00
588.00	323.00
589.00	307.00
590.00	300.00
591.00	298.00
592.00	280.00
593.00	295.00
594.00	286.00
595.00	278.00
596.00	291.00
597.00	280.00
598.00	284.00
599.00	285.00
600.00	275.00
601.00	281.00
602.00	270.00
603.00	273.00
604.00	273.00
605.00	273.00
606.00	284.00
607.00	284.00
608.00	290.00
609.00	287.00
610.00	275.00
611.00	273.00
612.00	276.00
613.00	275.00
614.00	277.00
615.00	266.00
616.00	280.00
617.00	271.00
618.00	269.00
619.00	279.00
620.00	286.00
621.00	280.00
622.00	278.00
623.00	287.00
624.00	288.00
625.00	276.00
626.00	294.00
627.00	273.00
628.00	287.00
629.00	277.00
630.00	269.00
631.00	283.00
632.00	282.00
633.00	290.00
634.00	293.00
635.00	305.00
636.00	300.00
637.00	305.00
638.00	298.00
639.00	303.00
640.00	300.00
641.00	301.00
642.00	314.00
643.00	313.00
644.00	359.00
645.00	442.00
646.00	516.00
647.00	518.00
648.00	466.00
649.00	443.00
650.00	444.00
651.00	512.00
652.00	554.00
653.00	579.00
654.00	609.00
655.00	629.00
656.00	666.00
657.00	653.00
658.00	598.00
659.00	587.00
660.00	608.00
661.00	619.00
662.00	643.00
663.00	678.00
664.00	728.00
665.00	747.00
666.00	765.00
667.00	757.00
668.00	729.00
669.00	713.00
670.00	676.00
671.00	638.00
672.00	651.00
673.00	681.00
674.00	771.00
675.00	888.00
676.00	921.00
677.00	917.00
678.00	847.00
679.00	796.00
680.00	725.00
681.00	653.00
682.00	625.00
683.00	600.00
684.00	596.00
685.00	558.00
686.00	541.00
687.00	546.00
688.00	547.00
689.00	562.00
690.00	614.00
691.00	669.00
692.00	693.00
693.00	673.00
694.00	629.00
695.00	564.00
696.00	509.00
697.00	483.00
698.00	459.00
699.00	425.00
700.00	400.00
701.00	387.00
702.00	387.00
703.00	385.00
704.00	381.00
705.00	383.00
706.00	393.00
707.00	420.00
708.00	446.00
709.00	484.00
710.00	490.00
711.00	495.00
712.00	483.00
713.00	474.00
714.00	421.00
715.00	411.00
716.00	386.00
717.00	369.00
718.00	345.00
719.00	345.00
720.00	338.00
721.00	335.00
722.00	327.00
723.00	336.00
724.00	334.00
725.00	331.00
726.00	342.00
727.00	349.00
728.00	343.00
729.00	352.00
730.00	363.00
731.00	377.00
732.00	402.00
733.00	406.00
734.00	441.00
735.00	458.00
736.00	521.00
737.00	565.00
738.00	659.00
739.00	821.00
740.00	1125.00
741.00	1720.00
742.00	2660.00
743.00	3501.00
744.00	3864.00
745.00	3694.00
746.00	3227.00
747.00	2798.00
748.00	2373.00
749.00	2015.00
750.00	1749.00
751.00	1523.00
752.00	1432.00
753.00	1297.00
754.00	1210.00
755.00	1091.00
756.00	962.00
757.00	865.00
758.00	785.00
759.00	687.00
760.00	655.00
761.00	615.00
762.00	558.00
763.00	546.00
764.00	553.00
765.00	527.00
766.00	546.00
767.00	553.00
768.00	577.00
769.00	588.00
770.00	598.00
771.00	592.00
772.00	599.00
773.00	592.00
774.00	572.00
775.00	551.00
776.00	527.00
777.00	517.00
778.00	495.00
779.00	500.00
780.00	491.00
781.00	493.00
782.00	489.00
783.00	471.00
784.00	455.00
785.00	462.00
786.00	440.00
787.00	426.00
788.00	415.00
789.00	418.00
790.00	416.00
791.00	404.00
792.00	409.00
793.00	402.00
794.00	416.00
795.00	426.00
796.00	447.00
797.00	476.00
798.00	538.00
799.00	606.00
800.00	665.00
801.00	639.00
802.00	583.00
803.00	526.00
804.00	454.00
805.00	398.00
806.00	360.00
807.00	309.00
808.00	278.00
809.00	276.00
810.00	257.00
811.00	257.00
812.00	249.00
813.00	249.00
814.00	249.00
815.00	243.00
816.00	234.00
817.00	241.00
818.00	245.00
819.00	233.00
820.00	236.00
821.00	227.00
822.00	233.00
823.00	225.00
824.00	230.00
825.00	221.00
826.00	218.00
827.00	220.00
828.00	220.00
829.00	227.00
830.00	225.00
831.00	221.00
832.00	224.00
833.00	230.00
834.00	229.00
835.00	225.00
836.00	219.00
837.00	224.00
838.00	229.00
839.00	229.00
840.00	222.00
841.00	224.00
842.00	230.00
843.00	253.00
844.00	216.00
845.00	227.00
846.00	228.00
847.00	218.00
848.00	227.00
849.00	223.00
850.00	231.00
851.00	221.00
852.00	220.00
853.00	235.00
854.00	262.00
855.00	287.00
856.00	299.00
857.00	304.00
858.00	296.00
859.00	277.00
860.00	265.00
861.00	258.00
862.00	245.00
863.00	254.00
864.00	238.00
865.00	236.00
866.00	232.00
867.00	232.00
868.00	219.00
869.00	236.00
870.00	212.00
871.00	207.00
872.00	208.00
873.00	208.00
874.00	204.00
875.00	204.00
876.00	212.00
877.00	209.00
878.00	209.00
879.00	203.00
880.00	205.00
881.00	208.00
882.00	205.00
883.00	201.00
884.00	193.00
885.00	193.00
886.00	198.00
887.00	206.00
888.00	201.00
889.00	213.00
890.00	237.00
891.00	242.00
892.00	241.00
893.00	233.00
894.00	226.00
895.00	226.00
896.00	219.00
897.00	210.00
898.00	214.00
899.00	206.00
900.00	205.00
901.00	205.00
902.00	202.00
903.00	202.00
904.00	205.00
905.00	210.00
906.00	209.00
907.00	214.00
908.00	209.00
909.00	209.00
910.00	201.00
911.00	206.00
912.00	226.00
913.00	201.00
914.00	199.00
915.00	196.00
916.00	197.00
917.00	211.00
918.00	198.00
919.00	196.00
920.00	192.00
921.00	194.00
922.00	208.00
923.00	196.00
924.00	193.00
925.00	200.00
926.00	199.00
927.00	197.00
928.00	190.00
929.00	190.00
930.00	193.00
931.00	187.00
932.00	187.00
933.00	202.00
934.00	198.00
935.00	192.00
936.00	190.00
937.00	197.00
938.00	192.00
939.00	195.00
940.00	189.00
941.00	200.00
942.00	196.00
943.00	193.00
944.00	190.00
945.00	195.00
946.00	189.00
947.00	193.00
948.00	193.00
949.00	194.00
950.00	198.00
951.00	194.00
952.00	188.00
953.00	184.00
954.00	189.00
955.00	188.00
956.00	188.00
957.00	190.00
958.00	182.00
959.00	186.00
960.00	195.00
961.00	196.00
962.00	210.00
963.00	213.00
964.00	216.00
965.00	220.00
966.00	220.00
967.00	212.00
968.00	235.00
969.00	207.00
970.00	196.00
971.00	199.00
972.00	189.00
973.00	187.00
974.00	190.00
975.00	184.00
976.00	191.00
977.00	184.00
978.00	181.00
979.00	184.00
980.00	193.00
981.00	204.00
982.00	210.00
983.00	210.00
984.00	198.00
985.00	195.00
986.00	189.00
987.00	188.00
988.00	192.00
989.00	183.00
990.00	180.00
991.00	173.00
992.00	172.00
993.00	179.00
994.00	174.00
995.00	174.00
996.00	180.00
997.00	174.00
998.00	177.00
999.00	179.00
1000.00	202.00
1001.00	177.00
1002.00	177.00
1003.00	179.00
1004.00	181.00
1005.00	176.00
1006.00	178.00
1007.00	183.00
1008.00	177.00
1009.00	200.00
1010.00	179.00
1011.00	185.00
1012.00	204.00
1013.00	192.00
1014.00	189.00
1015.00	191.00
1016.00	196.00
1017.00	201.00
1018.00	216.00
1019.00	234.00
1020.00	251.00
1021.00	274.00
1022.00	290.00
1023.00	268.00
1024.00	271.00
1025.00	272.00
1026.00	294.00
1027.00	312.00
1028.00	306.00
1029.00	285.00
1030.00	270.00
1031.00	251.00
1032.00	230.00
1033.00	225.00
1034.00	228.00
1035.00	243.00
1036.00	255.00
1037.00	265.00
1038.00	270.00
1039.00	254.00
1040.00	244.00
1041.00	230.00
1042.00	217.00
1043.00	211.00
1044.00	197.00
1045.00	187.00
1046.00	185.00
1047.00	172.00
1048.00	172.00
1049.00	177.00
1050.00	174.00
1051.00	169.00
1052.00	176.00
1053.00	171.00
1054.00	184.00
1055.00	174.00
1056.00	166.00
1057.00	167.00
1058.00	169.00
1059.00	171.00
1060.00	170.00
1061.00	170.00
1062.00	172.00
1063.00	168.00
1064.00	170.00
1065.00	171.00
1066.00	180.00
1067.00	171.00
1068.00	167.00
1069.00	169.00
1070.00	176.00
1071.00	171.00
1072.00	168.00
1073.00	166.00
1074.00	171.00
1075.00	174.00
1076.00	170.00
1077.00	172.00
1078.00	168.00
1079.00	169.00
1080.00	171.00
1081.00	173.00
1082.00	165.00
1083.00	170.00
1084.00	170.00
1085.00	172.00
1086.00	168.00
1087.00	169.00
1088.00	168.00
1089.00	170.00
1090.00	171.00
1091.00	173.00
1092.00	169.00
1093.00	163.00
1094.00	166.00
1095.00	163.00
1096.00	166.00
1097.00	168.00
1098.00	171.00
1099.00	173.00
1100.00	166.00
1101.00	166.00
1102.00	160.00
1103.00	168.00
1104.00	172.00
1105.00	168.00
1106.00	170.00
1107.00	167.00
1108.00	170.00
1109.00	172.00
1110.00	169.00
1111.00	166.00
1112.00	171.00
1113.00	169.00
1114.00	166.00
1115.00	167.00
1116.00	166.00
1117.00	164.00
1118.00	162.00
1119.00	164.00
1120.00	169.00
1121.00	168.00
1122.00	169.00
1123.00	163.00
1124.00	165.00
1125.00	170.00
1126.00	170.00
1127.00	170.00
1128.00	174.00
1129.00	169.00
1130.00	168.00
1131.00	171.00
1132.00	165.00
1133.00	175.00
1134.00	168.00
1135.00	171.00
1136.00	167.00
1137.00	169.00
1138.00	165.00
1139.00	169.00
1140.00	171.00
1141.00	172.00
1142.00	169.00
1143.00	171.00
1144.00	179.00
1145.00	175.00
1146.00	165.00
1147.00	164.00
1148.00	174.00
1149.00	170.00
1150.00	169.00
1151.00	171.00
1152.00	165.00
1153.00	174.00
1154.00	170.00
1155.00	170.00
1156.00	170.00
1157.00	167.00
1158.00	193.00
1159.00	168.00
1160.00	171.00
1161.00	167.00
1162.00	168.00
1163.00	164.00
1164.00	162.00
1165.00	167.00
1166.00	168.00
1167.00	168.00
1168.00	166.00
1169.00	166.00
1170.00	165.00
1171.00	169.00
1172.00	167.00
1173.00	168.00
1174.00	179.00
1175.00	172.00
1176.00	171.00
1177.00	168.00
1178.00	166.00
1179.00	167.00
1180.00	171.00
1181.00	169.00
1182.00	167.00
1183.00	164.00
1184.00	165.00
1185.00	170.00
1186.00	167.00
1187.00	172.00
1188.00	173.00
1189.00	168.00
1190.00	168.00
1191.00	188.00
1192.00	175.00
1193.00	168.00
1194.00	169.00
1195.00	167.00
1196.00	165.00
1197.00	165.00
1198.00	169.00
1199.00	163.00
1200.00	163.00
1201.00	165.00
1202.00	170.00
1203.00	169.00
1204.00	179.00
1205.00	173.00
1206.00	169.00
1207.00	171.00
1208.00	168.00
1209.00	171.00
1210.00	167.00
1211.00	169.00
1212.00	167.00
1213.00	163.00
1214.00	170.00
1215.00	170.00
1216.00	166.00
1217.00	169.00
1218.00	170.00
1219.00	169.00
1220.00	167.00
1221.00	169.00
1222.00	164.00
1223.00	169.00
1224.00	166.00
1225.00	165.00
1226.00	162.00
1227.00	176.00
1228.00	168.00
1229.00	166.00
1230.00	166.00
1231.00	172.00
1232.00	165.00
1233.00	166.00
1234.00	166.00
1235.00	163.00
1236.00	162.00
1237.00	164.00
1238.00	164.00
1239.00	169.00
1240.00	166.00
1241.00	167.00
1242.00	163.00
1243.00	162.00
1244.00	163.00
1245.00	169.00
1246.00	164.00
1247.00	170.00
1248.00	169.00
1249.00	165.00
1250.00	168.00
1251.00	166.00
1252.00	164.00
1253.00	162.00
1254.00	167.00
1255.00	164.00
1256.00	165.00
1257.00	168.00
1258.00	167.00
1259.00	162.00
1260.00	166.00
1261.00	168.00
1262.00	169.00
1263.00	166.00
1264.00	170.00
1265.00	168.00
1266.00	167.00
1267.00	166.00
1268.00	173.00
1269.00	166.00
1270.00	159.00
1271.00	161.00
1272.00	168.00
1273.00	168.00
1274.00	164.00
1275.00	165.00
1276.00	169.00
1277.00	166.00
1278.00	167.00
1279.00	165.00
1280.00	166.00
1281.00	166.00
1282.00	170.00
1283.00	166.00
1284.00	166.00
1285.00	172.00
1286.00	164.00
1287.00	166.00
1288.00	165.00
1289.00	161.00
1290.00	166.00
1291.00	164.00
1292.00	168.00
1293.00	165.00
1294.00	168.00
1295.00	167.00
1296.00	165.00
1297.00	169.00
1298.00	170.00
1299.00	166.00
1300.00	169.00
1301.00	168.00
1302.00	166.00
1303.00	164.00
1304.00	164.00
1305.00	170.00
1306.00	166.00
1307.00	170.00
1308.00	169.00
1309.00	166.00
1310.00	165.00
1311.00	175.00
1312.00	183.00
1313.00	166.00
1314.00	180.00
1315.00	170.00
1316.00	181.00
1317.00	169.00
1318.00	169.00
1319.00	163.00
1320.00	167.00
1321.00	164.00
1322.00	162.00
1323.00	167.00
1324.00	162.00
1325.00	167.00
1326.00	169.00
1327.00	168.00
1328.00	168.00
1329.00	169.00
1330.00	172.00
1331.00	164.00
1332.00	167.00
1333.00	166.00
1334.00	170.00
1335.00	167.00
1336.00	172.00
1337.00	175.00
1338.00	167.00
1339.00	172.00
1340.00	172.00
1341.00	164.00
1342.00	166.00
1343.00	171.00
1344.00	170.00
1345.00	168.00
1346.00	168.00
1347.00	168.00
1348.00	167.00
1349.00	164.00
1350.00	162.00
1351.00	167.00
1352.00	167.00
1353.00	168.00
1354.00	166.00
1355.00	167.00
1356.00	163.00
1357.00	163.00
1358.00	168.00
1359.00	165.00
1360.00	168.00
1361.00	172.00
1362.00	164.00
1363.00	165.00
1364.00	163.00
1365.00	165.00
1366.00	169.00
1367.00	166.00
1368.00	165.00
1369.00	165.00
1370.00	167.00
1371.00	169.00
1372.00	164.00
1373.00	170.00
1374.00	167.00
1375.00	167.00
1376.00	167.00
1377.00	168.00
1378.00	168.00
1379.00	170.00
1380.00	165.00
1381.00	162.00
1382.00	164.00
1383.00	165.00
1384.00	165.00
1385.00	186.00
1386.00	169.00
1387.00	169.00
1388.00	168.00
1389.00	170.00
1390.00	171.00
1391.00	165.00
1392.00	161.00
1393.00	164.00
1394.00	166.00
1395.00	166.00
1396.00	162.00
1397.00	167.00
1398.00	169.00
1399.00	165.00
1400.00	171.00
1401.00	187.00
1402.00	165.00
1403.00	163.00
1404.00	161.00
1405.00	168.00
1406.00	167.00
1407.00	169.00
1408.00	166.00
1409.00	165.00
1410.00	169.00
1411.00	169.00
1412.00	166.00
1413.00	166.00
1414.00	183.00
1415.00	172.00
1416.00	166.00
1417.00	170.00
1418.00	164.00
1419.00	168.00
1420.00	168.00
1421.00	165.00
1422.00	163.00
1423.00	160.00
1424.00	193.00
1425.00	170.00
1426.00	163.00
1427.00	165.00
1428.00	169.00
1429.00	169.00
1430.00	169.00
1431.00	169.00
1432.00	169.00
1433.00	168.00
1434.00	168.00
1435.00	171.00
1436.00	168.00
1437.00	174.00
1438.00	170.00
1439.00	171.00
1440.00	167.00
1441.00	167.00
1442.00	168.00
1443.00	170.00
1444.00	166.00
1445.00	165.00
1446.00	160.00
1447.00	169.00
1448.00	166.00
1449.00	167.00
1450.00	164.00
1451.00	164.00
1452.00	160.00
1453.00	163.00
1454.00	160.00
1455.00	164.00
1456.00	167.00
1457.00	167.00
1458.00	168.00
1459.00	160.00
1460.00	160.00
1461.00	162.00
1462.00	163.00
1463.00	167.00
1464.00	168.00
1465.00	167.00
1466.00	168.00
1467.00	175.00
1468.00	164.00
1469.00	164.00
1470.00	166.00
1471.00	166.00
1472.00	170.00
1473.00	168.00
1474.00	166.00
1475.00	168.00
1476.00	167.00
1477.00	168.00
1478.00	165.00
1479.00	161.00
1480.00	164.00
1481.00	166.00
1482.00	164.00
1483.00	169.00
1484.00	169.00
1485.00	170.00
1486.00	170.00
1487.00	168.00
1488.00	168.00
1489.00	161.00
1490.00	158.00
1491.00	162.00
1492.00	166.00
1493.00	168.00
1494.00	166.00
1495.00	163.00
1496.00	170.00
1497.00	167.00
1498.00	170.00
1499.00	166.00
1500.00	168.00
1501.00	174.00
1502.00	169.00
1503.00	165.00
1504.00	166.00
1505.00	164.00
1506.00	167.00
1507.00	163.00
1508.00	160.00
1509.00	172.00
1510.00	167.00
1511.00	172.00
1512.00	168.00
1513.00	165.00
1514.00	164.00
1515.00	165.00
1516.00	163.00
1517.00	168.00
1518.00	171.00
1519.00	164.00
1520.00	168.00
1521.00	170.00
1522.00	162.00
1523.00	163.00
1524.00	160.00
1525.00	168.00
1526.00	166.00
1527.00	166.00
1528.00	163.00
1529.00	167.00
1530.00	167.00
1531.00	164.00
1532.00	164.00
1533.00	169.00
1534.00	167.00
1535.00	161.00
1536.00	162.00
1537.00	165.00
1538.00	166.00
1539.00	166.00
1540.00	168.00
1541.00	170.00
1542.00	163.00
1543.00	161.00
1544.00	163.00
1545.00	164.00
1546.00	167.00
1547.00	172.00
1548.00	168.00
1549.00	163.00
1550.00	166.00
1551.00	165.00
1552.00	166.00
1553.00	169.00
1554.00	167.00
1555.00	162.00
1556.00	166.00
1557.00	164.00
1558.00	167.00
1559.00	168.00
1560.00	166.00
1561.00	169.00
1562.00	168.00
1563.00	164.00
1564.00	166.00
1565.00	167.00
1566.00	165.00
1567.00	167.00
1568.00	167.00
1569.00	172.00
1570.00	166.00
1571.00	170.00
1572.00	169.00
1573.00	164.00
1574.00	163.00
1575.00	163.00
1576.00	164.00
1577.00	164.00
1578.00	165.00
1579.00	163.00
1580.00	162.00
1581.00	163.00
1582.00	163.00
1583.00	166.00
1584.00	167.00
1585.00	163.00
1586.00	166.00
1587.00	165.00
1588.00	163.00
1589.00	163.00
1590.00	163.00
1591.00	166.00
1592.00	162.00
1593.00	196.00
1594.00	168.00
1595.00	162.00
1596.00	162.00
1597.00	170.00
1598.00	167.00
1599.00	167.00
1600.00	164.00
1601.00	165.00
1602.00	162.00
1603.00	162.00
1604.00	166.00
1605.00	163.00
1606.00	163.00
1607.00	165.00
1608.00	165.00
1609.00	165.00
1610.00	166.00
1611.00	166.00
1612.00	162.00
1613.00	164.00
1614.00	169.00
1615.00	169.00
1616.00	165.00
1617.00	162.00
1618.00	163.00
1619.00	169.00
1620.00	164.00
1621.00	168.00
1622.00	169.00
1623.00	169.00
1624.00	165.00
1625.00	167.00
1626.00	172.00
1627.00	166.00
1628.00	165.00
1629.00	166.00
1630.00	172.00
1631.00	169.00
1632.00	168.00
1633.00	168.00
1634.00	163.00
1635.00	162.00
1636.00	167.00
1637.00	164.00
1638.00	159.00
1639.00	160.00
1640.00	166.00
1641.00	173.00
1642.00	170.00
1643.00	168.00
1644.00	164.00
1645.00	169.00
1646.00	167.00
1647.00	168.00
1648.00	168.00
1649.00	163.00
1650.00	164.00
1651.00	171.00
1652.00	167.00
1653.00	167.00
1654.00	165.00
1655.00	164.00
1656.00	170.00
1657.00	171.00
1658.00	171.00
1659.00	165.00
1660.00	168.00
1661.00	168.00
1662.00	169.00
1663.00	172.00
1664.00	168.00
1665.00	169.00
1666.00	170.00
1667.00	167.00
1668.00	165.00
1669.00	164.00
1670.00	164.00
1671.00	166.00
1672.00	166.00
1673.00	166.00
1674.00	168.00
1675.00	168.00
1676.00	161.00
1677.00	164.00
1678.00	165.00
1679.00	167.00
1680.00	164.00
1681.00	170.00
1682.00	170.00
1683.00	170.00
1684.00	168.00
1685.00	163.00
1686.00	165.00
1687.00	165.00
1688.00	172.00
1689.00	170.00
1690.00	169.00
1691.00	164.00
1692.00	161.00
1693.00	164.00
1694.00	164.00
1695.00	161.00
1696.00	164.00
1697.00	164.00
1698.00	162.00
1699.00	164.00
1700.00	165.00
1701.00	163.00
1702.00	168.00
1703.00	183.00
1704.00	166.00
1705.00	163.00
1706.00	162.00
1707.00	170.00
1708.00	168.00
1709.00	172.00
1710.00	168.00
1711.00	163.00
1712.00	166.00
1713.00	167.00
1714.00	168.00
1715.00	167.00
1716.00	165.00
1717.00	172.00
1718.00	162.00
1719.00	170.00
1720.00	170.00
1721.00	165.00
1722.00	167.00
1723.00	163.00
1724.00	163.00
1725.00	169.00
1726.00	165.00
1727.00	165.00
1728.00	165.00
1729.00	164.00
1730.00	166.00
1731.00	164.00
1732.00	162.00
1733.00	164.00
1734.00	163.00
1735.00	164.00
1736.00	160.00
1737.00	162.00
1738.00	163.00
1739.00	166.00
1740.00	166.00
1741.00	166.00
1742.00	165.00
1743.00	169.00
1744.00	168.00
1745.00	167.00
1746.00	181.00
1747.00	164.00
1748.00	169.00
1749.00	169.00
1750.00	166.00
1751.00	167.00
1752.00	166.00
1753.00	165.00
1754.00	168.00
1755.00	166.00
1756.00	164.00
1757.00	163.00
1758.00	164.00
1759.00	165.00
1760.00	165.00
1761.00	162.00
1762.00	164.00
1763.00	164.00
1764.00	168.00
1765.00	165.00
1766.00	165.00
1767.00	163.00
1768.00	166.00
1769.00	168.00
1770.00	165.00
1771.00	166.00
1772.00	160.00
1773.00	164.00
1774.00	167.00
1775.00	168.00
1776.00	168.00
1777.00	164.00
1778.00	172.00
1779.00	169.00
1780.00	169.00
1781.00	168.00
1782.00	165.00
1783.00	165.00
1784.00	165.00
1785.00	170.00
1786.00	165.00
1787.00	169.00
1788.00	167.00
1789.00	175.00
1790.00	167.00
1791.00	165.00
1792.00	170.00
1793.00	181.00
1794.00	192.00
1795.00	171.00
1796.00	168.00
1797.00	168.00
1798.00	163.00
1799.00	162.00
1800.00	178.00
1801.00	170.00
1802.00	166.00
1803.00	167.00
1804.00	166.00
1805.00	186.00
1806.00	170.00
1807.00	170.00
1808.00	165.00
1809.00	171.00
1810.00	166.00
1811.00	163.00
1812.00	168.00
1813.00	169.00
1814.00	167.00
1815.00	168.00
1816.00	168.00
1817.00	167.00
1818.00	169.00
1819.00	168.00
1820.00	165.00
1821.00	167.00
1822.00	161.00
1823.00	162.00
1824.00	168.00
1825.00	165.00
1826.00	167.00
1827.00	165.00
1828.00	166.00
1829.00	168.00
1830.00	185.00
1831.00	168.00
1832.00	168.00
1833.00	167.00
1834.00	167.00
1835.00	168.00
1836.00	164.00
1837.00	166.00
1838.00	169.00
1839.00	172.00
1840.00	170.00
1841.00	169.00
1842.00	168.00
1843.00	164.00
1844.00	164.00
1845.00	168.00
1846.00	167.00
1847.00	165.00
1848.00	168.00
1849.00	173.00
1850.00	169.00
1851.00	168.00
1852.00	190.00
1853.00	173.00
1854.00	165.00
1855.00	164.00
1856.00	172.00
1857.00	167.00
1858.00	165.00
1859.00	165.00
1860.00	167.00
1861.00	168.00
1862.00	168.00
1863.00	187.00
1864.00	172.00
1865.00	163.00
1866.00	164.00
1867.00	170.00
1868.00	176.00
1869.00	167.00
1870.00	165.00
1871.00	168.00
1872.00	170.00
1873.00	167.00
1874.00	164.00
1875.00	166.00
1876.00	163.00
1877.00	166.00
1878.00	165.00
1879.00	161.00
1880.00	161.00
1881.00	176.00
1882.00	167.00
1883.00	163.00
1884.00	168.00
1885.00	166.00
1886.00	168.00
1887.00	168.00
1888.00	165.00
1889.00	168.00
1890.00	169.00
1891.00	171.00
1892.00	164.00
1893.00	163.00
1894.00	168.00
1895.00	163.00
1896.00	166.00
1897.00	162.00
1898.00	165.00
1899.00	164.00
1900.00	167.00
1901.00	175.00
1902.00	168.00
1903.00	164.00
1904.00	165.00
1905.00	166.00
1906.00	166.00
1907.00	165.00
1908.00	179.00
1909.00	165.00
1910.00	181.00
1911.00	170.00
1912.00	165.00
1913.00	163.00
1914.00	169.00
1915.00	166.00
1916.00	167.00
1917.00	167.00
1918.00	165.00
1919.00	166.00
1920.00	166.00
1921.00	169.00
1922.00	169.00
1923.00	165.00
1924.00	164.00
1925.00	164.00
1926.00	166.00
1927.00	170.00
1928.00	169.00
1929.00	166.00
1930.00	167.00
1931.00	168.00
1932.00	173.00
1933.00	175.00
1934.00	165.00
1935.00	166.00
1936.00	162.00
1937.00	174.00
1938.00	168.00
1939.00	163.00
1940.00	170.00
1941.00	169.00
1942.00	164.00
1943.00	163.00
1944.00	163.00
1945.00	165.00
1946.00	166.00
1947.00	173.00
1948.00	175.00
1949.00	168.00
1950.00	167.00
1951.00	171.00
1952.00	169.00
1953.00	165.00
1954.00	167.00
1955.00	164.00
1956.00	166.00
1957.00	171.00
1958.00	164.00
1959.00	160.00
1960.00	161.00
1961.00	168.00
1962.00	165.00
1963.00	159.00
1964.00	169.00
1965.00	166.00
1966.00	168.00
1967.00	181.00
1968.00	171.00
1969.00	164.00
1970.00	167.00
1971.00	167.00
1972.00	165.00
1973.00	166.00
1974.00	167.00
1975.00	166.00
1976.00	169.00
1977.00	165.00
1978.00	168.00
1979.00	170.00
1980.00	162.00
1981.00	163.00
1982.00	167.00
1983.00	167.00
1984.00	160.00
1985.00	166.00
1986.00	170.00
1987.00	165.00
1988.00	164.00
1989.00	167.00
1990.00	167.00
1991.00	165.00
1992.00	166.00
1993.00	168.00
1994.00	167.00
1995.00	167.00
1996.00	166.00
1997.00	166.00
1998.00	168.00
1999.00	166.00
2000.00	165.00
2001.00	167.00
2002.00	168.00
2003.00	165.00
2004.00	163.00
2005.00	168.00
2006.00	166.00
2007.00	167.00
2008.00	166.00
2009.00	167.00
2010.00	171.00
2011.00	178.00
2012.00	172.00
2013.00	172.00
2014.00	167.00
2015.00	167.00
2016.00	164.00
2017.00	175.00
2018.00	169.00
2019.00	164.00
2020.00	167.00
2021.00	165.00
2022.00	162.00
2023.00	166.00
2024.00	163.00
2025.00	168.00
2026.00	172.00
2027.00	168.00
2028.00	185.00
2029.00	172.00
2030.00	169.00
2031.00	169.00
2032.00	166.00
2033.00	166.00
2034.00	168.00
2035.00	165.00
2036.00	162.00
2037.00	163.00
2038.00	165.00
2039.00	166.00
2040.00	180.00
2041.00	173.00
2042.00	171.00
2043.00	168.00
2044.00	168.00
2045.00	166.00
2046.00	169.00
2047.00	169.00
>>>>>End Processed Spectral Data<<<<<
