SpectraSuite Data File
++++++++++++++++++++++++++++++++++++
Date: Wed Dec 31 16:17:34 PST 1969
User: admin
Dark Spectrum Present: No
Reference Spectrum Present: Yes
Number of Sampled Component Spectra: 1
Spectrometers: USB2G8485
Integration Time (usec): 500000 (USB2G8485)
Spectra Averaged: 1 (USB2G8485)
Boxcar Smoothing: 0 (USB2G8485)
Correct for Electrical Dark: No (USB2G8485)
Strobe/Lamp Enabled: No (USB2G8485)
Correct for Detector Non-linearity: No (USB2G8485)
Correct for Stray Light: No (USB2G8485)
Number of Pixels in Processed Spectrum: 2048
>>>>>Begin Processed Spectral Data<<<<<
0.00	0.00
1.00	152.00
2.00	149.00
3.00	154.00
4.00	151.00
5.00	164.00
6.00	165.00
7.00	164.00
8.00	167.00
9.00	164.00
10.00	161.00
11.00	161.00
12.00	163.00
13.00	165.00
14.00	166.00
15.00	166.00
16.00	169.00
17.00	168.00
18.00	163.00
19.00	162.00
20.00	164.00
21.00	168.00
22.00	166.00
23.00	164.00
24.00	164.00
25.00	168.00
26.00	165.00
27.00	184.00
28.00	168.00
29.00	169.00
30.00	163.00
31.00	164.00
32.00	166.00
33.00	162.00
34.00	163.00
35.00	163.00
36.00	162.00
37.00	162.00
38.00	164.00
39.00	164.00
40.00	174.00
41.00	166.00
42.00	167.00
43.00	166.00
44.00	166.00
45.00	170.00
46.00	166.00
47.00	166.00
48.00	170.00
49.00	165.00
50.00	165.00
51.00	164.00
52.00	161.00
53.00	167.00
54.00	166.00
55.00	182.00
56.00	178.00
57.00	169.00
58.00	166.00
59.00	166.00
60.00	169.00
61.00	167.00
62.00	168.00
63.00	165.00
64.00	188.00
65.00	165.00
66.00	164.00
67.00	162.00
68.00	162.00
69.00	167.00
70.00	166.00
71.00	171.00
72.00	174.00
73.00	172.00
74.00	167.00
75.00	169.00
76.00	174.00
77.00	169.00
78.00	170.00
79.00	170.00
80.00	178.00
81.00	167.00
82.00	168.00
83.00	163.00
84.00	164.00
85.00	165.00
86.00	171.00
87.00	170.00
88.00	168.00
89.00	166.00
90.00	169.00
91.00	168.00
92.00	168.00
93.00	169.00
94.00	164.00
95.00	186.00
96.00	172.00
97.00	168.00
98.00	169.00
99.00	167.00
100.00	163.00
101.00	162.00
102.00	168.00
103.00	166.00
104.00	166.00
105.00	169.00
106.00	172.00
107.00	171.00
108.00	174.00
109.00	172.00
110.00	168.00
111.00	166.00
112.00	176.00
113.00	170.00
114.00	168.00
115.00	164.00
116.00	168.00
117.00	169.00
118.00	169.00
119.00	171.00
120.00	176.00
121.00	174.00
122.00	169.00
123.00	170.00
124.00	168.00
125.00	167.00
126.00	168.00
127.00	171.00
128.00	168.00
129.00	166.00
130.00	168.00
131.00	169.00
132.00	165.00
133.00	161.00
134.00	165.00
135.00	169.00
136.00	171.00
137.00	170.00
138.00	174.00
139.00	170.00
140.00	168.00
141.00	167.00
142.00	164.00
143.00	165.00
144.00	164.00
145.00	167.00
146.00	169.00
147.00	171.00
148.00	165.00
149.00	173.00
150.00	171.00
151.00	169.00
152.00	177.00
153.00	171.00
154.00	181.00
155.00	170.00
156.00	168.00
157.00	169.00
158.00	167.00
159.00	165.00
160.00	168.00
161.00	171.00
162.00	167.00
163.00	167.00
164.00	165.00
165.00	166.00
166.00	166.00
167.00	170.00
168.00	173.00
169.00	169.00
170.00	174.00
171.00	173.00
172.00	186.00
173.00	213.00
174.00	247.00
175.00	245.00
176.00	216.00
177.00	191.00
178.00	176.00
179.00	169.00
180.00	173.00
181.00	168.00
182.00	173.00
183.00	180.00
184.00	175.00
185.00	177.00
186.00	175.00
187.00	170.00
188.00	171.00
189.00	171.00
190.00	170.00
191.00	168.00
192.00	172.00
193.00	172.00
194.00	173.00
195.00	168.00
196.00	173.00
197.00	174.00
198.00	185.00
199.00	176.00
200.00	175.00
201.00	175.00
202.00	166.00
203.00	177.00
204.00	188.00
205.00	177.00
206.00	175.00
207.00	176.00
208.00	178.00
209.00	173.00
210.00	175.00
211.00	180.00
212.00	182.00
213.00	177.00
214.00	178.00
215.00	173.00
216.00	178.00
217.00	182.00
218.00	176.00
219.00	176.00
220.00	179.00
221.00	189.00
222.00	190.00
223.00	181.00
224.00	177.00
225.00	182.00
226.00	182.00
227.00	178.00
228.00	180.00
229.00	181.00
230.00	203.00
231.00	185.00
232.00	184.00
233.00	185.00
234.00	187.00
235.00	184.00
236.00	192.00
237.00	195.00
238.00	195.00
239.00	187.00
240.00	212.00
241.00	196.00
242.00	189.00
243.00	198.00
244.00	197.00
245.00	199.00
246.00	213.00
247.00	198.00
248.00	203.00
249.00	211.00
250.00	203.00
251.00	201.00
252.00	213.00
253.00	222.00
254.00	241.00
255.00	323.00
256.00	644.00
257.00	1081.00
258.00	1317.00
259.00	1140.00
260.00	694.00
261.00	401.00
262.00	247.00
263.00	222.00
264.00	222.00
265.00	217.00
266.00	208.00
267.00	226.00
268.00	219.00
269.00	222.00
270.00	223.00
271.00	217.00
272.00	228.00
273.00	210.00
274.00	225.00
275.00	217.00
276.00	214.00
277.00	217.00
278.00	216.00
279.00	215.00
280.00	214.00
281.00	222.00
282.00	217.00
283.00	220.00
284.00	221.00
285.00	230.00
286.00	215.00
287.00	221.00
288.00	218.00
289.00	219.00
290.00	218.00
291.00	226.00
292.00	217.00
293.00	226.00
294.00	220.00
295.00	221.00
296.00	222.00
297.00	227.00
298.00	227.00
299.00	234.00
300.00	225.00
301.00	227.00
302.00	237.00
303.00	237.00
304.00	228.00
305.00	232.00
306.00	235.00
307.00	223.00
308.00	226.00
309.00	247.00
310.00	226.00
311.00	225.00
312.00	216.00
313.00	225.00
314.00	218.00
315.00	248.00
316.00	218.00
317.00	227.00
318.00	227.00
319.00	225.00
320.00	220.00
321.00	221.00
322.00	221.00
323.00	223.00
324.00	223.00
325.00	223.00
326.00	219.00
327.00	215.00
328.00	217.00
329.00	255.00
330.00	225.00
331.00	219.00
332.00	220.00
333.00	228.00
334.00	225.00
335.00	222.00
336.00	220.00
337.00	224.00
338.00	223.00
339.00	209.00
340.00	218.00
341.00	215.00
342.00	225.00
343.00	222.00
344.00	217.00
345.00	220.00
346.00	222.00
347.00	219.00
348.00	226.00
349.00	213.00
350.00	217.00
351.00	222.00
352.00	217.00
353.00	213.00
354.00	215.00
355.00	220.00
356.00	218.00
357.00	218.00
358.00	220.00
359.00	215.00
360.00	220.00
361.00	216.00
362.00	217.00
363.00	224.00
364.00	216.00
365.00	219.00
366.00	214.00
367.00	219.00
368.00	212.00
369.00	210.00
370.00	214.00
371.00	212.00
372.00	218.00
373.00	214.00
374.00	218.00
375.00	220.00
376.00	229.00
377.00	228.00
378.00	227.00
379.00	224.00
380.00	229.00
381.00	241.00
382.00	241.00
383.00	251.00
384.00	276.00
385.00	280.00
386.00	294.00
387.00	311.00
388.00	328.00
389.00	355.00
390.00	377.00
391.00	430.00
392.00	458.00
393.00	509.00
394.00	522.00
395.00	532.00
396.00	548.00
397.00	561.00
398.00	555.00
399.00	566.00
400.00	555.00
401.00	542.00
402.00	558.00
403.00	539.00
404.00	546.00
405.00	535.00
406.00	515.00
407.00	510.00
408.00	500.00
409.00	494.00
410.00	474.00
411.00	467.00
412.00	459.00
413.00	458.00
414.00	443.00
415.00	434.00
416.00	423.00
417.00	416.00
418.00	399.00
419.00	397.00
420.00	381.00
421.00	385.00
422.00	381.00
423.00	376.00
424.00	371.00
425.00	370.00
426.00	374.00
427.00	350.00
428.00	350.00
429.00	333.00
430.00	317.00
431.00	303.00
432.00	294.00
433.00	276.00
434.00	271.00
435.00	261.00
436.00	253.00
437.00	243.00
438.00	239.00
439.00	234.00
440.00	232.00
441.00	232.00
442.00	236.00
443.00	229.00
444.00	220.00
445.00	221.00
446.00	211.00
447.00	220.00
448.00	217.00
449.00	211.00
450.00	213.00
451.00	219.00
452.00	210.00
453.00	215.00
454.00	208.00
455.00	240.00
456.00	230.00
457.00	212.00
458.00	216.00
459.00	214.00
460.00	211.00
461.00	210.00
462.00	214.00
463.00	215.00
464.00	245.00
465.00	212.00
466.00	214.00
467.00	208.00
468.00	208.00
469.00	210.00
470.00	208.00
471.00	219.00
472.00	209.00
473.00	207.00
474.00	211.00
475.00	214.00
476.00	217.00
477.00	221.00
478.00	212.00
479.00	213.00
480.00	207.00
481.00	211.00
482.00	210.00
483.00	207.00
484.00	205.00
485.00	215.00
486.00	211.00
487.00	210.00
488.00	208.00
489.00	212.00
490.00	211.00
491.00	212.00
492.00	204.00
493.00	207.00
494.00	202.00
495.00	208.00
496.00	216.00
497.00	213.00
498.00	207.00
499.00	215.00
500.00	208.00
501.00	208.00
502.00	214.00
503.00	221.00
504.00	214.00
505.00	210.00
506.00	209.00
507.00	219.00
508.00	218.00
509.00	215.00
510.00	220.00
511.00	216.00
512.00	213.00
513.00	216.00
514.00	220.00
515.00	218.00
516.00	223.00
517.00	216.00
518.00	218.00
519.00	226.00
520.00	225.00
521.00	225.00
522.00	234.00
523.00	254.00
524.00	271.00
525.00	294.00
526.00	272.00
527.00	275.00
528.00	264.00
529.00	260.00
530.00	265.00
531.00	262.00
532.00	278.00
533.00	274.00
534.00	304.00
535.00	312.00
536.00	339.00
537.00	386.00
538.00	433.00
539.00	476.00
540.00	499.00
541.00	544.00
542.00	611.00
543.00	671.00
544.00	750.00
545.00	866.00
546.00	1073.00
547.00	1349.00
548.00	1757.00
549.00	2058.00
550.00	2295.00
551.00	2485.00
552.00	2522.00
553.00	2624.00
554.00	2540.00
555.00	2448.00
556.00	2348.00
557.00	2276.00
558.00	2506.00
559.00	2849.00
560.00	2827.00
561.00	2465.00
562.00	1902.00
563.00	1472.00
564.00	1161.00
565.00	957.00
566.00	864.00
567.00	858.00
568.00	889.00
569.00	882.00
570.00	848.00
571.00	804.00
572.00	758.00
573.00	730.00
574.00	709.00
575.00	697.00
576.00	679.00
577.00	669.00
578.00	700.00
579.00	619.00
580.00	587.00
581.00	543.00
582.00	506.00
583.00	453.00
584.00	394.00
585.00	378.00
586.00	339.00
587.00	325.00
588.00	317.00
589.00	310.00
590.00	298.00
591.00	296.00
592.00	301.00
593.00	297.00
594.00	281.00
595.00	292.00
596.00	286.00
597.00	276.00
598.00	293.00
599.00	279.00
600.00	275.00
601.00	271.00
602.00	277.00
603.00	286.00
604.00	277.00
605.00	273.00
606.00	275.00
607.00	281.00
608.00	273.00
609.00	283.00
610.00	283.00
611.00	270.00
612.00	285.00
613.00	279.00
614.00	277.00
615.00	279.00
616.00	269.00
617.00	274.00
618.00	276.00
619.00	278.00
620.00	275.00
621.00	282.00
622.00	281.00
623.00	274.00
624.00	286.00
625.00	275.00
626.00	285.00
627.00	282.00
628.00	285.00
629.00	280.00
630.00	279.00
631.00	277.00
632.00	287.00
633.00	290.00
634.00	287.00
635.00	303.00
636.00	300.00
637.00	297.00
638.00	306.00
639.00	302.00
640.00	307.00
641.00	312.00
642.00	308.00
643.00	314.00
644.00	370.00
645.00	442.00
646.00	511.00
647.00	531.00
648.00	475.00
649.00	433.00
650.00	443.00
651.00	504.00
652.00	560.00
653.00	586.00
654.00	619.00
655.00	625.00
656.00	649.00
657.00	644.00
658.00	599.00
659.00	604.00
660.00	606.00
661.00	610.00
662.00	653.00
663.00	669.00
664.00	719.00
665.00	763.00
666.00	758.00
667.00	764.00
668.00	735.00
669.00	693.00
670.00	663.00
671.00	637.00
672.00	641.00
673.00	689.00
674.00	763.00
675.00	873.00
676.00	934.00
677.00	919.00
678.00	861.00
679.00	787.00
680.00	724.00
681.00	669.00
682.00	633.00
683.00	604.00
684.00	581.00
685.00	567.00
686.00	549.00
687.00	537.00
688.00	540.00
689.00	577.00
690.00	611.00
691.00	665.00
692.00	687.00
693.00	671.00
694.00	625.00
695.00	573.00
696.00	511.00
697.00	465.00
698.00	458.00
699.00	421.00
700.00	396.00
701.00	397.00
702.00	393.00
703.00	383.00
704.00	389.00
705.00	386.00
706.00	396.00
707.00	436.00
708.00	460.00
709.00	482.00
710.00	495.00
711.00	505.00
712.00	492.00
713.00	470.00
714.00	436.00
715.00	408.00
716.00	382.00
717.00	377.00
718.00	356.00
719.00	340.00
720.00	341.00
721.00	330.00
722.00	325.00
723.00	326.00
724.00	341.00
725.00	331.00
726.00	341.00
727.00	336.00
728.00	346.00
729.00	351.00
730.00	374.00
731.00	378.00
732.00	392.00
733.00	414.00
734.00	431.00
735.00	470.00
736.00	520.00
737.00	575.00
738.00	665.00
739.00	815.00
740.00	1121.00
741.00	1721.00
742.00	2642.00
743.00	3498.00
744.00	3863.00
745.00	3669.00
746.00	3225.00
747.00	2777.00
748.00	2399.00
749.00	2017.00
750.00	1707.00
751.00	1525.00
752.00	1419.00
753.00	1317.00
754.00	1196.00
755.00	1075.00
756.00	969.00
757.00	860.00
758.00	757.00
759.00	702.00
760.00	648.00
761.00	607.00
762.00	573.00
763.00	544.00
764.00	540.00
765.00	539.00
766.00	545.00
767.00	546.00
768.00	579.00
769.00	590.00
770.00	589.00
771.00	600.00
772.00	584.00
773.00	572.00
774.00	571.00
775.00	556.00
776.00	532.00
777.00	523.00
778.00	505.00
779.00	501.00
780.00	497.00
781.00	483.00
782.00	493.00
783.00	481.00
784.00	453.00
785.00	478.00
786.00	436.00
787.00	431.00
788.00	421.00
789.00	417.00
790.00	416.00
791.00	403.00
792.00	409.00
793.00	423.00
794.00	416.00
795.00	430.00
796.00	441.00
797.00	471.00
798.00	546.00
799.00	601.00
800.00	659.00
801.00	636.00
802.00	602.00
803.00	515.00
804.00	471.00
805.00	402.00
806.00	344.00
807.00	315.00
808.00	291.00
809.00	277.00
810.00	261.00
811.00	258.00
812.00	252.00
813.00	252.00
814.00	247.00
815.00	236.00
816.00	236.00
817.00	239.00
818.00	251.00
819.00	233.00
820.00	243.00
821.00	232.00
822.00	233.00
823.00	233.00
824.00	224.00
825.00	219.00
826.00	223.00
827.00	221.00
828.00	223.00
829.00	225.00
830.00	219.00
831.00	224.00
832.00	225.00
833.00	225.00
834.00	222.00
835.00	225.00
836.00	228.00
837.00	222.00
838.00	226.00
839.00	227.00
840.00	230.00
841.00	223.00
842.00	228.00
843.00	249.00
844.00	222.00
845.00	228.00
846.00	226.00
847.00	223.00
848.00	216.00
849.00	215.00
850.00	225.00
851.00	228.00
852.00	227.00
853.00	233.00
854.00	259.00
855.00	284.00
856.00	295.00
857.00	296.00
858.00	282.00
859.00	282.00
860.00	258.00
861.00	258.00
862.00	240.00
863.00	238.00
864.00	244.00
865.00	241.00
866.00	237.00
867.00	222.00
868.00	220.00
869.00	249.00
870.00	210.00
871.00	205.00
872.00	208.00
873.00	203.00
874.00	205.00
875.00	199.00
876.00	208.00
877.00	209.00
878.00	216.00
879.00	206.00
880.00	210.00
881.00	196.00
882.00	203.00
883.00	196.00
884.00	195.00
885.00	198.00
886.00	195.00
887.00	200.00
888.00	205.00
889.00	224.00
890.00	231.00
891.00	245.00
892.00	244.00
893.00	227.00
894.00	231.00
895.00	224.00
896.00	218.00
897.00	212.00
898.00	204.00
899.00	208.00
900.00	212.00
901.00	205.00
902.00	205.00
903.00	201.00
904.00	201.00
905.00	205.00
906.00	205.00
907.00	210.00
908.00	207.00
909.00	208.00
910.00	208.00
911.00	202.00
912.00	221.00
913.00	202.00
914.00	197.00
915.00	201.00
916.00	200.00
917.00	206.00
918.00	194.00
919.00	196.00
920.00	200.00
921.00	196.00
922.00	204.00
923.00	192.00
924.00	193.00
925.00	206.00
926.00	200.00
927.00	194.00
928.00	195.00
929.00	189.00
930.00	191.00
931.00	191.00
932.00	187.00
933.00	200.00
934.00	199.00
935.00	191.00
936.00	187.00
937.00	191.00
938.00	197.00
939.00	202.00
940.00	194.00
941.00	195.00
942.00	194.00
943.00	195.00
944.00	194.00
945.00	193.00
946.00	195.00
947.00	194.00
948.00	194.00
949.00	192.00
950.00	195.00
951.00	192.00
952.00	190.00
953.00	192.00
954.00	184.00
955.00	181.00
956.00	186.00
957.00	185.00
958.00	181.00
959.00	180.00
960.00	185.00
961.00	193.00
962.00	214.00
963.00	213.00
964.00	221.00
965.00	223.00
966.00	224.00
967.00	216.00
968.00	230.00
969.00	199.00
970.00	198.00
971.00	198.00
972.00	193.00
973.00	187.00
974.00	185.00
975.00	180.00
976.00	193.00
977.00	184.00
978.00	183.00
979.00	184.00
980.00	190.00
981.00	203.00
982.00	222.00
983.00	214.00
984.00	196.00
985.00	194.00
986.00	193.00
987.00	186.00
988.00	189.00
989.00	181.00
990.00	186.00
991.00	183.00
992.00	176.00
993.00	172.00
994.00	170.00
995.00	170.00
996.00	178.00
997.00	177.00
998.00	175.00
999.00	178.00
1000.00	193.00
1001.00	179.00
1002.00	174.00
1003.00	174.00
1004.00	176.00
1005.00	175.00
1006.00	184.00
1007.00	180.00
1008.00	178.00
1009.00	196.00
1010.00	185.00
1011.00	188.00
1012.00	203.00
1013.00	189.00
1014.00	187.00
1015.00	191.00
1016.00	202.00
1017.00	209.00
1018.00	220.00
1019.00	236.00
1020.00	252.00
1021.00	279.00
1022.00	281.00
1023.00	270.00
1024.00	258.00
1025.00	266.00
1026.00	294.00
1027.00	318.00
1028.00	301.00
1029.00	288.00
1030.00	271.00
1031.00	244.00
1032.00	235.00
1033.00	230.00
1034.00	233.00
1035.00	238.00
1036.00	255.00
1037.00	270.00
1038.00	267.00
1039.00	252.00
1040.00	247.00
1041.00	229.00
1042.00	216.00
1043.00	212.00
1044.00	196.00
1045.00	192.00
1046.00	180.00
1047.00	186.00
1048.00	176.00
1049.00	174.00
1050.00	176.00
1051.00	177.00
1052.00	169.00
1053.00	168.00
1054.00	179.00
1055.00	177.00
1056.00	177.00
1057.00	171.00
1058.00	172.00
1059.00	169.00
1060.00	170.00
1061.00	174.00
1062.00	175.00
1063.00	172.00
1064.00	174.00
1065.00	173.00
1066.00	180.00
1067.00	174.00
1068.00	173.00
1069.00	174.00
1070.00	166.00
1071.00	169.00
1072.00	169.00
1073.00	171.00
1074.00	166.00
1075.00	170.00
1076.00	169.00
1077.00	171.00
1078.00	172.00
1079.00	170.00
1080.00	166.00
1081.00	168.00
1082.00	170.00
1083.00	168.00
1084.00	172.00
1085.00	174.00
1086.00	170.00
1087.00	167.00
1088.00	167.00
1089.00	169.00
1090.00	171.00
1091.00	170.00
1092.00	170.00
1093.00	173.00
1094.00	168.00
1095.00	164.00
1096.00	168.00
1097.00	169.00
1098.00	163.00
1099.00	167.00
1100.00	173.00
1101.00	171.00
1102.00	169.00
1103.00	170.00
1104.00	168.00
1105.00	168.00
1106.00	167.00
1107.00	163.00
1108.00	165.00
1109.00	170.00
1110.00	170.00
1111.00	168.00
1112.00	168.00
1113.00	167.00
1114.00	173.00
1115.00	171.00
1116.00	170.00
1117.00	170.00
1118.00	169.00
1119.00	169.00
1120.00	172.00
1121.00	169.00
1122.00	170.00
1123.00	171.00
1124.00	177.00
1125.00	169.00
1126.00	165.00
1127.00	172.00
1128.00	169.00
1129.00	169.00
1130.00	169.00
1131.00	169.00
1132.00	168.00
1133.00	166.00
1134.00	168.00
1135.00	172.00
1136.00	166.00
1137.00	162.00
1138.00	163.00
1139.00	169.00
1140.00	170.00
1141.00	168.00
1142.00	165.00
1143.00	164.00
1144.00	184.00
1145.00	174.00
1146.00	166.00
1147.00	168.00
1148.00	172.00
1149.00	172.00
1150.00	171.00
1151.00	170.00
1152.00	172.00
1153.00	169.00
1154.00	170.00
1155.00	169.00
1156.00	169.00
1157.00	170.00
1158.00	191.00
1159.00	172.00
1160.00	167.00
1161.00	167.00
1162.00	164.00
1163.00	168.00
1164.00	169.00
1165.00	170.00
1166.00	167.00
1167.00	167.00
1168.00	169.00
1169.00	166.00
1170.00	167.00
1171.00	165.00
1172.00	167.00
1173.00	167.00
1174.00	171.00
1175.00	168.00
1176.00	163.00
1177.00	166.00
1178.00	169.00
1179.00	165.00
1180.00	172.00
1181.00	159.00
1182.00	162.00
1183.00	164.00
1184.00	170.00
1185.00	169.00
1186.00	172.00
1187.00	167.00
1188.00	168.00
1189.00	174.00
1190.00	175.00
1191.00	185.00
1192.00	172.00
1193.00	170.00
1194.00	169.00
1195.00	171.00
1196.00	171.00
1197.00	170.00
1198.00	170.00
1199.00	166.00
1200.00	169.00
1201.00	167.00
1202.00	164.00
1203.00	170.00
1204.00	183.00
1205.00	177.00
1206.00	165.00
1207.00	165.00
1208.00	171.00
1209.00	172.00
1210.00	168.00
1211.00	167.00
1212.00	170.00
1213.00	168.00
1214.00	162.00
1215.00	165.00
1216.00	170.00
1217.00	170.00
1218.00	169.00
1219.00	169.00
1220.00	168.00
1221.00	163.00
1222.00	165.00
1223.00	169.00
1224.00	172.00
1225.00	171.00
1226.00	164.00
1227.00	164.00
1228.00	166.00
1229.00	170.00
1230.00	167.00
1231.00	177.00
1232.00	169.00
1233.00	167.00
1234.00	165.00
1235.00	169.00
1236.00	169.00
1237.00	173.00
1238.00	164.00
1239.00	165.00
1240.00	167.00
1241.00	170.00
1242.00	164.00
1243.00	168.00
1244.00	166.00
1245.00	167.00
1246.00	166.00
1247.00	169.00
1248.00	168.00
1249.00	166.00
1250.00	167.00
1251.00	167.00
1252.00	165.00
1253.00	168.00
1254.00	169.00
1255.00	167.00
1256.00	165.00
1257.00	169.00
1258.00	168.00
1259.00	171.00
1260.00	168.00
1261.00	166.00
1262.00	164.00
1263.00	166.00
1264.00	176.00
1265.00	169.00
1266.00	165.00
1267.00	168.00
1268.00	168.00
1269.00	166.00
1270.00	164.00
1271.00	161.00
1272.00	165.00
1273.00	169.00
1274.00	164.00
1275.00	163.00
1276.00	165.00
1277.00	165.00
1278.00	168.00
1279.00	165.00
1280.00	164.00
1281.00	163.00
1282.00	162.00
1283.00	163.00
1284.00	164.00
1285.00	164.00
1286.00	166.00
1287.00	166.00
1288.00	163.00
1289.00	166.00
1290.00	168.00
1291.00	164.00
1292.00	168.00
1293.00	170.00
1294.00	168.00
1295.00	165.00
1296.00	163.00
1297.00	170.00
1298.00	171.00
1299.00	171.00
1300.00	166.00
1301.00	170.00
1302.00	163.00
1303.00	165.00
1304.00	165.00
1305.00	165.00
1306.00	171.00
1307.00	169.00
1308.00	169.00
1309.00	168.00
1310.00	171.00
1311.00	178.00
1312.00	180.00
1313.00	167.00
1314.00	182.00
1315.00	170.00
1316.00	179.00
1317.00	166.00
1318.00	167.00
1319.00	166.00
1320.00	168.00
1321.00	164.00
1322.00	164.00
1323.00	165.00
1324.00	168.00
1325.00	166.00
1326.00	166.00
1327.00	167.00
1328.00	167.00
1329.00	163.00
1330.00	168.00
1331.00	167.00
1332.00	167.00
1333.00	166.00
1334.00	171.00
1335.00	167.00
1336.00	171.00
1337.00	174.00
1338.00	174.00
1339.00	172.00
1340.00	173.00
1341.00	172.00
1342.00	166.00
1343.00	165.00
1344.00	167.00
1345.00	172.00
1346.00	172.00
1347.00	163.00
1348.00	159.00
1349.00	162.00
1350.00	166.00
1351.00	167.00
1352.00	163.00
1353.00	166.00
1354.00	170.00
1355.00	170.00
1356.00	166.00
1357.00	165.00
1358.00	164.00
1359.00	172.00
1360.00	164.00
1361.00	174.00
1362.00	167.00
1363.00	161.00
1364.00	165.00
1365.00	165.00
1366.00	172.00
1367.00	168.00
1368.00	169.00
1369.00	171.00
1370.00	170.00
1371.00	170.00
1372.00	164.00
1373.00	170.00
1374.00	167.00
1375.00	164.00
1376.00	164.00
1377.00	168.00
1378.00	166.00
1379.00	168.00
1380.00	170.00
1381.00	167.00
1382.00	169.00
1383.00	166.00
1384.00	165.00
1385.00	185.00
1386.00	172.00
1387.00	169.00
1388.00	166.00
1389.00	168.00
1390.00	172.00
1391.00	167.00
1392.00	166.00
1393.00	169.00
1394.00	168.00
1395.00	169.00
1396.00	172.00
1397.00	170.00
1398.00	168.00
1399.00	165.00
1400.00	171.00
1401.00	197.00
1402.00	168.00
1403.00	166.00
1404.00	168.00
1405.00	166.00
1406.00	167.00
1407.00	166.00
1408.00	169.00
1409.00	166.00
1410.00	167.00
1411.00	166.00
1412.00	166.00
1413.00	170.00
1414.00	189.00
1415.00	169.00
1416.00	165.00
1417.00	171.00
1418.00	165.00
1419.00	163.00
1420.00	165.00
1421.00	166.00
1422.00	164.00
1423.00	162.00
1424.00	191.00
1425.00	171.00
1426.00	163.00
1427.00	165.00
1428.00	169.00
1429.00	170.00
1430.00	168.00
1431.00	163.00
1432.00	164.00
1433.00	164.00
1434.00	164.00
1435.00	168.00
1436.00	172.00
1437.00	171.00
1438.00	167.00
1439.00	171.00
1440.00	170.00
1441.00	167.00
1442.00	167.00
1443.00	168.00
1444.00	165.00
1445.00	167.00
1446.00	167.00
1447.00	170.00
1448.00	164.00
1449.00	165.00
1450.00	168.00
1451.00	171.00
1452.00	167.00
1453.00	166.00
1454.00	161.00
1455.00	168.00
1456.00	165.00
1457.00	164.00
1458.00	170.00
1459.00	168.00
1460.00	167.00
1461.00	167.00
1462.00	167.00
1463.00	169.00
1464.00	168.00
1465.00	167.00
1466.00	171.00
1467.00	173.00
1468.00	169.00
1469.00	164.00
1470.00	166.00
1471.00	167.00
1472.00	172.00
1473.00	169.00
1474.00	165.00
1475.00	160.00
1476.00	166.00
1477.00	166.00
1478.00	165.00
1479.00	166.00
1480.00	167.00
1481.00	166.00
1482.00	167.00
1483.00	169.00
1484.00	168.00
1485.00	166.00
1486.00	162.00
1487.00	162.00
1488.00	165.00
1489.00	168.00
1490.00	166.00
1491.00	161.00
1492.00	165.00
1493.00	168.00
1494.00	166.00
1495.00	166.00
1496.00	172.00
1497.00	169.00
1498.00	169.00
1499.00	166.00
1500.00	164.00
1501.00	169.00
1502.00	165.00
1503.00	165.00
1504.00	163.00
1505.00	163.00
1506.00	168.00
1507.00	163.00
1508.00	166.00
1509.00	174.00
1510.00	165.00
1511.00	169.00
1512.00	169.00
1513.00	170.00
1514.00	164.00
1515.00	165.00
1516.00	170.00
1517.00	168.00
1518.00	164.00
1519.00	162.00
1520.00	175.00
1521.00	164.00
1522.00	167.00
1523.00	167.00
1524.00	166.00
1525.00	167.00
1526.00	169.00
1527.00	165.00
1528.00	167.00
1529.00	160.00
1530.00	162.00
1531.00	166.00
1532.00	163.00
1533.00	166.00
1534.00	171.00
1535.00	170.00
1536.00	167.00
1537.00	169.00
1538.00	166.00
1539.00	165.00
1540.00	164.00
1541.00	165.00
1542.00	167.00
1543.00	164.00
1544.00	166.00
1545.00	164.00
1546.00	163.00
1547.00	167.00
1548.00	165.00
1549.00	165.00
1550.00	166.00
1551.00	165.00
1552.00	161.00
1553.00	164.00
1554.00	170.00
1555.00	168.00
1556.00	168.00
1557.00	168.00
1558.00	166.00
1559.00	165.00
1560.00	160.00
1561.00	170.00
1562.00	162.00
1563.00	167.00
1564.00	168.00
1565.00	170.00
1566.00	164.00
1567.00	173.00
1568.00	169.00
1569.00	171.00
1570.00	167.00
1571.00	168.00
1572.00	170.00
1573.00	169.00
1574.00	162.00
1575.00	168.00
1576.00	164.00
1577.00	170.00
1578.00	166.00
1579.00	162.00
1580.00	166.00
1581.00	167.00
1582.00	167.00
1583.00	165.00
1584.00	165.00
1585.00	168.00
1586.00	169.00
1587.00	165.00
1588.00	165.00
1589.00	171.00
1590.00	170.00
1591.00	171.00
1592.00	168.00
1593.00	202.00
1594.00	167.00
1595.00	166.00
1596.00	169.00
1597.00	168.00
1598.00	170.00
1599.00	166.00
1600.00	166.00
1601.00	167.00
1602.00	160.00
1603.00	168.00
1604.00	173.00
1605.00	167.00
1606.00	165.00
1607.00	166.00
1608.00	161.00
1609.00	169.00
1610.00	166.00
1611.00	165.00
1612.00	164.00
1613.00	162.00
1614.00	166.00
1615.00	171.00
1616.00	167.00
1617.00	171.00
1618.00	166.00
1619.00	169.00
1620.00	166.00
1621.00	173.00
1622.00	173.00
1623.00	175.00
1624.00	166.00
1625.00	165.00
1626.00	177.00
1627.00	167.00
1628.00	165.00
1629.00	165.00
1630.00	171.00
1631.00	170.00
1632.00	165.00
1633.00	166.00
1634.00	164.00
1635.00	165.00
1636.00	166.00
1637.00	170.00
1638.00	166.00
1639.00	169.00
1640.00	168.00
1641.00	166.00
1642.00	167.00
1643.00	168.00
1644.00	165.00
1645.00	169.00
1646.00	168.00
1647.00	163.00
1648.00	168.00
1649.00	169.00
1650.00	164.00
1651.00	165.00
1652.00	164.00
1653.00	164.00
1654.00	165.00
1655.00	166.00
1656.00	167.00
1657.00	167.00
1658.00	171.00
1659.00	165.00
1660.00	168.00
1661.00	168.00
1662.00	168.00
1663.00	169.00
1664.00	170.00
1665.00	172.00
1666.00	170.00
1667.00	169.00
1668.00	166.00
1669.00	165.00
1670.00	168.00
1671.00	166.00
1672.00	169.00
1673.00	168.00
1674.00	167.00
1675.00	170.00
1676.00	167.00
1677.00	171.00
1678.00	168.00
1679.00	164.00
1680.00	163.00
1681.00	166.00
1682.00	168.00
1683.00	166.00
1684.00	164.00
1685.00	167.00
1686.00	163.00
1687.00	164.00
1688.00	180.00
1689.00	167.00
1690.00	169.00
1691.00	170.00
1692.00	168.00
1693.00	164.00
1694.00	166.00
1695.00	167.00
1696.00	162.00
1697.00	162.00
1698.00	167.00
1699.00	170.00
1700.00	168.00
1701.00	164.00
1702.00	163.00
1703.00	180.00
1704.00	168.00
1705.00	167.00
1706.00	169.00
1707.00	175.00
1708.00	165.00
1709.00	166.00
1710.00	166.00
1711.00	171.00
1712.00	168.00
1713.00	166.00
1714.00	167.00
1715.00	164.00
1716.00	164.00
1717.00	173.00
1718.00	168.00
1719.00	167.00
1720.00	165.00
1721.00	166.00
1722.00	166.00
1723.00	167.00
1724.00	169.00
1725.00	166.00
1726.00	166.00
1727.00	168.00
1728.00	167.00
1729.00	166.00
1730.00	166.00
1731.00	162.00
1732.00	166.00
1733.00	164.00
1734.00	166.00
1735.00	165.00
1736.00	166.00
1737.00	165.00
1738.00	166.00
1739.00	163.00
1740.00	170.00
1741.00	169.00
1742.00	164.00
1743.00	167.00
1744.00	165.00
1745.00	161.00
1746.00	175.00
1747.00	168.00
1748.00	169.00
1749.00	167.00
1750.00	167.00
1751.00	169.00
1752.00	169.00
1753.00	167.00
1754.00	166.00
1755.00	170.00
1756.00	167.00
1757.00	163.00
1758.00	167.00
1759.00	166.00
1760.00	165.00
1761.00	164.00
1762.00	167.00
1763.00	166.00
1764.00	165.00
1765.00	167.00
1766.00	161.00
1767.00	168.00
1768.00	172.00
1769.00	165.00
1770.00	168.00
1771.00	171.00
1772.00	164.00
1773.00	172.00
1774.00	169.00
1775.00	161.00
1776.00	168.00
1777.00	172.00
1778.00	173.00
1779.00	169.00
1780.00	161.00
1781.00	162.00
1782.00	164.00
1783.00	164.00
1784.00	160.00
1785.00	168.00
1786.00	171.00
1787.00	166.00
1788.00	164.00
1789.00	171.00
1790.00	169.00
1791.00	166.00
1792.00	166.00
1793.00	174.00
1794.00	190.00
1795.00	171.00
1796.00	165.00
1797.00	164.00
1798.00	171.00
1799.00	172.00
1800.00	184.00
1801.00	170.00
1802.00	167.00
1803.00	170.00
1804.00	167.00
1805.00	186.00
1806.00	168.00
1807.00	167.00
1808.00	170.00
1809.00	168.00
1810.00	166.00
1811.00	165.00
1812.00	164.00
1813.00	175.00
1814.00	168.00
1815.00	167.00
1816.00	167.00
1817.00	165.00
1818.00	168.00
1819.00	162.00
1820.00	169.00
1821.00	167.00
1822.00	165.00
1823.00	164.00
1824.00	169.00
1825.00	166.00
1826.00	167.00
1827.00	166.00
1828.00	168.00
1829.00	164.00
1830.00	188.00
1831.00	169.00
1832.00	165.00
1833.00	169.00
1834.00	165.00
1835.00	164.00
1836.00	161.00
1837.00	164.00
1838.00	164.00
1839.00	166.00
1840.00	163.00
1841.00	170.00
1842.00	167.00
1843.00	167.00
1844.00	165.00
1845.00	165.00
1846.00	169.00
1847.00	168.00
1848.00	165.00
1849.00	175.00
1850.00	163.00
1851.00	160.00
1852.00	191.00
1853.00	172.00
1854.00	160.00
1855.00	166.00
1856.00	170.00
1857.00	164.00
1858.00	164.00
1859.00	165.00
1860.00	171.00
1861.00	163.00
1862.00	164.00
1863.00	175.00
1864.00	170.00
1865.00	167.00
1866.00	163.00
1867.00	167.00
1868.00	173.00
1869.00	168.00
1870.00	164.00
1871.00	169.00
1872.00	169.00
1873.00	166.00
1874.00	164.00
1875.00	166.00
1876.00	163.00
1877.00	165.00
1878.00	166.00
1879.00	166.00
1880.00	168.00
1881.00	182.00
1882.00	168.00
1883.00	169.00
1884.00	168.00
1885.00	163.00
1886.00	171.00
1887.00	168.00
1888.00	166.00
1889.00	168.00
1890.00	167.00
1891.00	172.00
1892.00	170.00
1893.00	165.00
1894.00	164.00
1895.00	163.00
1896.00	164.00
1897.00	165.00
1898.00	167.00
1899.00	168.00
1900.00	165.00
1901.00	172.00
1902.00	168.00
1903.00	168.00
1904.00	160.00
1905.00	164.00
1906.00	162.00
1907.00	161.00
1908.00	173.00
1909.00	166.00
1910.00	179.00
1911.00	168.00
1912.00	167.00
1913.00	161.00
1914.00	165.00
1915.00	166.00
1916.00	162.00
1917.00	166.00
1918.00	168.00
1919.00	165.00
1920.00	165.00
1921.00	170.00
1922.00	174.00
1923.00	166.00
1924.00	165.00
1925.00	163.00
1926.00	173.00
1927.00	171.00
1928.00	168.00
1929.00	171.00
1930.00	172.00
1931.00	167.00
1932.00	173.00
1933.00	173.00
1934.00	170.00
1935.00	166.00
1936.00	166.00
1937.00	167.00
1938.00	165.00
1939.00	173.00
1940.00	172.00
1941.00	166.00
1942.00	170.00
1943.00	168.00
1944.00	169.00
1945.00	175.00
1946.00	170.00
1947.00	168.00
1948.00	171.00
1949.00	161.00
1950.00	165.00
1951.00	172.00
1952.00	170.00
1953.00	165.00
1954.00	167.00
1955.00	167.00
1956.00	171.00
1957.00	173.00
1958.00	168.00
1959.00	165.00
1960.00	168.00
1961.00	169.00
1962.00	165.00
1963.00	168.00
1964.00	167.00
1965.00	166.00
1966.00	166.00
1967.00	177.00
1968.00	168.00
1969.00	167.00
1970.00	169.00
1971.00	166.00
1972.00	168.00
1973.00	167.00
1974.00	169.00
1975.00	169.00
1976.00	167.00
1977.00	167.00
1978.00	167.00
1979.00	164.00
1980.00	164.00
1981.00	161.00
1982.00	165.00
1983.00	166.00
1984.00	165.00
1985.00	164.00
1986.00	169.00
1987.00	163.00
1988.00	165.00
1989.00	168.00
1990.00	165.00
1991.00	163.00
1992.00	166.00
1993.00	166.00
1994.00	167.00
1995.00	169.00
1996.00	166.00
1997.00	170.00
1998.00	166.00
1999.00	168.00
2000.00	164.00
2001.00	161.00
2002.00	162.00
2003.00	166.00
2004.00	164.00
2005.00	167.00
2006.00	164.00
2007.00	162.00
2008.00	164.00
2009.00	165.00
2010.00	167.00
2011.00	180.00
2012.00	165.00
2013.00	158.00
2014.00	169.00
2015.00	172.00
2016.00	165.00
2017.00	169.00
2018.00	168.00
2019.00	164.00
2020.00	163.00
2021.00	165.00
2022.00	169.00
2023.00	169.00
2024.00	162.00
2025.00	164.00
2026.00	163.00
2027.00	165.00
2028.00	183.00
2029.00	169.00
2030.00	164.00
2031.00	181.00
2032.00	169.00
2033.00	169.00
2034.00	171.00
2035.00	178.00
2036.00	165.00
2037.00	162.00
2038.00	162.00
2039.00	162.00
2040.00	182.00
2041.00	167.00
2042.00	167.00
2043.00	167.00
2044.00	167.00
2045.00	166.00
2046.00	165.00
2047.00	173.00
>>>>>End Processed Spectral Data<<<<<
